 # k       S(k)       S(k)_form^2       S(k)_Lorch          S(k)_Lorch_form^2
    0.200000  1.5992467E+00  1.5564482E+00  1.5899901E-02  1.5474393E-02
    0.400000  1.5711775E+00  1.5291213E+00  1.1832029E-02  1.1515317E-02
    0.600000  1.5249961E+00  1.4841619E+00  5.0862966E-03  4.9501030E-03
    0.800000  1.4615873E+00  1.4224320E+00 -4.2865852E-03 -4.1717493E-03
    1.000000  1.3821577E+00  1.3451071E+00 -1.6216359E-02 -1.5781658E-02
    1.200000  1.2882044E+00  1.2536460E+00 -3.0613930E-02 -2.9792656E-02
    1.400000  1.1814771E+00  1.1497533E+00 -4.7372244E-02 -4.6100251E-02
    1.600000  1.0639334E+00  1.0353360E+00 -6.6367310E-02 -6.4583424E-02
    1.800000  9.3768933E-01  9.1245545E-01 -8.7459337E-02 -8.5105744E-02
    2.000000  8.0496672E-01  7.8327595E-01 -1.1049396E-01 -1.0751657E-01
    2.200000  6.6803836E-01  6.5001106E-01 -1.3530350E-01 -1.3165228E-01
    2.400000  5.2917279E-01  5.1487007E-01 -1.6170831E-01 -1.5733759E-01
    2.600000  3.9058045E-01  3.8000537E-01 -1.8951801E-01 -1.8438676E-01
    2.800000  2.5436235E-01  2.4746254E-01 -2.1853278E-01 -2.1260488E-01
    3.000000  1.2246305E-01  1.1913446E-01 -2.4854458E-01 -2.4178905E-01
    3.200000 -3.3710718E-03 -3.2792484E-03 -2.7933823E-01 -2.7172944E-01
    3.400000 -1.2162691E-01 -1.1830640E-01 -3.1069251E-01 -3.0221037E-01
    3.600000 -2.3105234E-01 -2.2472918E-01 -3.4238106E-01 -3.3301120E-01
    3.800000 -3.3067576E-01 -3.2160313E-01 -3.7417325E-01 -3.6390719E-01
    4.000000 -4.1981713E-01 -4.0826779E-01 -4.0583495E-01 -3.9467026E-01
    4.200000 -4.9809024E-01 -4.8434887E-01 -4.3712919E-01 -4.2506962E-01
    4.400000 -5.6539642E-01 -5.4975204E-01 -4.6781681E-01 -4.5487244E-01
    4.600000 -6.2191001E-01 -6.0464868E-01 -4.9765708E-01 -4.8384444E-01
    4.800000 -6.6805616E-01 -6.4945420E-01 -5.2640823E-01 -5.1175044E-01
    5.000000 -7.0448188E-01 -6.8479974E-01 -5.5382811E-01 -5.3835501E-01
    5.200000 -7.3202128E-01 -7.1149830E-01 -5.7967488E-01 -5.6342309E-01
    5.400001 -7.5165630E-01 -7.3050645E-01 -6.0370787E-01 -5.8672095E-01
    5.600001 -7.6447384E-01 -7.4288256E-01 -6.2568805E-01 -6.0801654E-01
    5.800001 -7.7162189E-01 -7.4974404E-01 -6.4537978E-01 -6.2708129E-01
    6.000001 -7.7426421E-01 -7.5222330E-01 -6.6255162E-01 -6.4369082E-01
    6.200001 -7.7353669E-01 -7.5142524E-01 -6.7697788E-01 -6.5762656E-01
    6.400000 -7.7050587E-01 -7.4838698E-01 -6.8844029E-01 -6.6867725E-01
    6.600000 -7.6613117E-01 -7.4404112E-01 -6.9673010E-01 -6.7664111E-01
    6.800000 -7.6123202E-01 -7.3918393E-01 -7.0164991E-01 -6.8132753E-01
    6.999999 -7.5646077E-01 -7.3444901E-01 -7.0301625E-01 -6.8255964E-01
    7.199999 -7.5228212E-01 -7.3028748E-01 -7.0066212E-01 -6.8017670E-01
    7.399999 -7.4895995E-01 -7.2695525E-01 -6.9443960E-01 -6.7403672E-01
    7.599998 -7.4655147E-01 -7.2450749E-01 -6.8422285E-01 -6.6401929E-01
    7.799998 -7.4490899E-01 -7.2280053E-01 -6.6991071E-01 -6.5002816E-01
    7.999998 -7.4368929E-01 -7.2150104E-01 -6.5142999E-01 -6.3199432E-01
    8.199997 -7.4236993E-01 -7.2010204E-01 -6.2873815E-01 -6.0987873E-01
    8.399997 -7.4027200E-01 -7.1794517E-01 -6.0182569E-01 -5.8367445E-01
    8.599997 -7.3658863E-01 -7.1424841E-01 -5.7071926E-01 -5.5340975E-01
    8.799996 -7.3041809E-01 -7.0813840E-01 -5.3548367E-01 -5.1915000E-01
    8.999996 -7.2080035E-01 -6.9868592E-01 -4.9622312E-01 -4.8099880E-01
    9.199996 -7.0675620E-01 -6.8494393E-01 -4.5308369E-01 -4.3910039E-01
    9.399995 -6.8732730E-01 -6.6598644E-01 -4.0625382E-01 -3.9364002E-01
    9.599995 -6.6161546E-01 -6.4094657E-01 -3.5596387E-01 -3.4484355E-01
    9.799995 -6.2882138E-01 -6.0905411E-01 -3.0248727E-01 -2.9297845E-01
    9.999994 -5.8827988E-01 -5.6966949E-01 -2.4613895E-01 -2.3835228E-01
   10.199994 -5.3949052E-01 -5.2231339E-01 -1.8727283E-01 -1.8131015E-01
   10.399994 -4.8214524E-01 -4.6669331E-01 -1.2628118E-01 -1.2223408E-01
   10.599993 -4.1614860E-01 -4.0272303E-01 -6.3590794E-02 -6.1539259E-02
   10.799993 -3.4163085E-01 -3.3053496E-01  3.4168850E-04  3.3059074E-04
   10.999992 -2.5895757E-01 -2.5048932E-01  6.5031957E-02  6.2905328E-02
   11.199992 -1.6872694E-01 -1.6317112E-01  1.2997554E-01  1.2569572E-01
   11.399992 -7.1765538E-02 -6.9385868E-02  1.9465107E-01  1.8819665E-01
   11.599991  3.0886700E-02  2.9855255E-02  2.5852723E-01  2.4989385E-01
   11.799991  1.3799858E-01  1.3335707E-01  3.2107007E-01  3.1027106E-01
   11.999991  2.4817092E-01  2.3976317E-01  3.8174767E-01  3.6881450E-01
   12.199990  3.5986950E-01  3.4758798E-01  4.4003798E-01  4.2502050E-01
   12.399990  4.7146247E-01  4.5525312E-01  4.9543643E-01  4.7840284E-01
   12.599990  5.8125574E-01  5.6112181E-01  5.4746091E-01  5.2849759E-01
   12.799990  6.8753603E-01  6.6354050E-01  5.9565950E-01  5.7487053E-01
   12.999991  7.8861234E-01  7.6087903E-01  6.3961658E-01  6.1712304E-01
   13.199991  8.8285514E-01  8.5156846E-01  6.7895772E-01  6.5489677E-01
   13.399991  9.6873898E-01  9.3414219E-01  7.1335618E-01  6.8787993E-01
   13.599992  1.0448777E+00  1.0072698E+00  7.4253670E-01  7.1581079E-01
   13.799992  1.1100568E+00  1.0697879E+00  7.6627894E-01  7.3848104E-01
   13.999993  1.1632642E+00  1.1207300E+00  7.8442139E-01  7.5573941E-01
   14.199993  1.2037112E+00  1.1593463E+00  7.9686250E-01  7.6749274E-01
   14.399993  1.2308516E+00  1.1851215E+00  8.0356253E-01  7.7370762E-01
   14.599994  1.2443913E+00  1.1977841E+00  8.0454334E-01  7.7441013E-01
   14.799994  1.2442933E+00  1.1973106E+00  7.9988772E-01  7.6968514E-01
   14.999995  1.2307749E+00  1.1839226E+00  7.8973768E-01  7.5967448E-01
   15.199995  1.2042999E+00  1.1580787E+00  7.7429202E-01  7.4457456E-01
   15.399995  1.1655628E+00  1.1204591E+00  7.5380254E-01  7.2463265E-01
   15.599996  1.1154692E+00  1.0719461E+00  7.2856989E-01  7.0014272E-01
   15.799996  1.0551109E+00  1.0136003E+00  6.9893903E-01  6.7144108E-01
   15.999997  9.8573560E-01  9.4663057E-01  6.6529281E-01  6.3890003E-01
   16.199997  9.0871640E-01  8.7236484E-01  6.2804702E-01  6.0292313E-01
   16.399997  8.2551514E-01  7.9221452E-01  5.8764286E-01  5.6393782E-01
   16.599998  7.3764748E-01  7.0764082E-01  5.4454069E-01  5.2238939E-01
   16.799998  6.4664837E-01  6.2012147E-01  4.9921388E-01  4.7873507E-01
   16.999999  5.5403372E-01  5.3111393E-01  4.5214051E-01  4.3343594E-01
   17.199999  4.6127060E-01  4.4202675E-01  4.0379839E-01  3.8695224E-01
   17.399999  3.6974306E-01  3.5418690E-01  3.5465702E-01  3.3973558E-01
   17.600000  2.8072605E-01  2.6881488E-01  3.0517213E-01  2.9222371E-01
   17.800000  1.9536312E-01  1.8700350E-01  2.5578077E-01  2.4483588E-01
   18.000001  1.1464423E-01  1.0969692E-01  2.0689449E-01  1.9796626E-01
   18.200001  3.9394873E-02  3.7680405E-02  1.5889673E-01  1.5198153E-01
   18.400002 -2.9736420E-02 -2.8431300E-02  1.1213709E-01  1.0721544E-01
   18.600002 -9.2279311E-02 -8.8194836E-02  6.6930120E-02  6.3967653E-02
   18.800002 -1.4794339E-01 -1.4133959E-01  2.3551273E-02  2.2500006E-02
   19.000003 -1.9661156E-01 -1.8776100E-01 -1.7763912E-02 -1.6964261E-02
   19.200003 -2.3832964E-01 -2.2751038E-01 -5.6820096E-02 -5.4240680E-02
   19.400004 -2.7329440E-01 -2.6078312E-01 -9.3463663E-02 -8.9184943E-02
   19.600004 -3.0183498E-01 -2.8790068E-01 -1.2758056E-01 -1.2169076E-01
   19.800004 -3.2439475E-01 -3.0929305E-01 -1.5909635E-01 -1.5168986E-01
   20.000005 -3.4150922E-01 -3.2547744E-01 -1.8797376E-01 -1.7914954E-01
   20.200005 -3.5378339E-01 -3.3703650E-01 -2.1420996E-01 -2.0407000E-01
   20.400006 -3.6186931E-01 -3.4459682E-01 -2.3783466E-01 -2.2648251E-01
   20.600006 -3.6644284E-01 -3.4880668E-01 -2.5890591E-01 -2.4644529E-01
   20.800006 -3.6818221E-01 -3.5031558E-01 -2.7750748E-01 -2.6404099E-01
   21.000007 -3.6774756E-01 -3.4975480E-01 -2.9374480E-01 -2.7937276E-01
   21.200007 -3.6576294E-01 -3.4772023E-01 -3.0774097E-01 -2.9256042E-01
   21.400008 -3.6280051E-01 -3.4475752E-01 -3.1963356E-01 -3.0373736E-01
   21.600008 -3.5936786E-01 -3.4135003E-01 -3.2957027E-01 -3.1304642E-01
   21.800008 -3.5589815E-01 -3.3790967E-01 -3.3770584E-01 -3.2063687E-01
   22.000009 -3.5274358E-01 -3.3477077E-01 -3.4419837E-01 -3.2666095E-01
   22.200009 -3.5017206E-01 -3.3218717E-01 -3.4920616E-01 -3.3127088E-01
   22.400010 -3.4836686E-01 -3.3033198E-01 -3.5288506E-01 -3.3461627E-01
   22.600010 -3.4742929E-01 -3.2930032E-01 -3.5538579E-01 -3.3684165E-01
   22.800010 -3.4738390E-01 -3.2911443E-01 -3.5685194E-01 -3.3808453E-01
   23.000011 -3.4818604E-01 -3.2973097E-01 -3.5741812E-01 -3.3847371E-01
   23.200011 -3.4973122E-01 -3.3105002E-01 -3.5720863E-01 -3.3812802E-01
   23.400012 -3.5186596E-01 -3.3292548E-01 -3.5633649E-01 -3.3715537E-01
   23.600012 -3.5439947E-01 -3.3517623E-01 -3.5490282E-01 -3.3565228E-01
   23.800012 -3.5711600E-01 -3.3759784E-01 -3.5299655E-01 -3.3370354E-01
   24.000013 -3.5978699E-01 -3.3997417E-01 -3.5069447E-01 -3.3138236E-01
   24.200013 -3.6218288E-01 -3.4208850E-01 -3.4806161E-01 -3.2875069E-01
   24.400014 -3.6408418E-01 -3.4373397E-01 -3.4515175E-01 -3.2585976E-01
   24.600014 -3.6529110E-01 -3.4472273E-01 -3.4200830E-01 -3.2275091E-01
   24.800014 -3.6563198E-01 -3.4489375E-01 -3.3866512E-01 -3.1945641E-01
   25.000015 -3.6496987E-01 -3.4411901E-01 -3.3514766E-01 -3.1600055E-01
   25.200015 -3.6320727E-01 -3.4230792E-01 -3.3147413E-01 -3.1240074E-01
   25.400016 -3.6028900E-01 -3.3940988E-01 -3.2765655E-01 -3.0866852E-01
   25.600016 -3.5620318E-01 -3.3541518E-01 -3.2370204E-01 -3.0481081E-01
   25.800017 -3.5098023E-01 -3.3035390E-01 -3.1961381E-01 -3.0083082E-01
   26.000017 -3.4469038E-01 -3.2429354E-01 -3.1539236E-01 -2.9672921E-01
   26.200017 -3.3743942E-01 -3.1733490E-01 -3.1103629E-01 -2.9250486E-01
   26.400018 -3.2936328E-01 -3.0960696E-01 -3.0654322E-01 -2.8815572E-01
   26.600018 -3.2062183E-01 -3.0126090E-01 -3.0191058E-01 -2.8367954E-01
   26.800019 -3.1139138E-01 -2.9246315E-01 -2.9713601E-01 -2.7907430E-01
   27.000019 -3.0185759E-01 -2.8338856E-01 -2.9221804E-01 -2.7433881E-01
   27.200019 -2.9220748E-01 -2.7421301E-01 -2.8715619E-01 -2.6947278E-01
   27.400020 -2.8262225E-01 -2.6510655E-01 -2.8195128E-01 -2.6447716E-01
   27.600020 -2.7327049E-01 -2.5622718E-01 -2.7660550E-01 -2.5935419E-01
   27.800021 -2.6430173E-01 -2.4771473E-01 -2.7112229E-01 -2.5410724E-01
   28.000021 -2.5584164E-01 -2.3968645E-01 -2.6550635E-01 -2.4874088E-01
   28.200021 -2.4798762E-01 -2.3223294E-01 -2.5976330E-01 -2.4326051E-01
   28.400022 -2.4080614E-01 -2.2541568E-01 -2.5389951E-01 -2.3767223E-01
   28.600022 -2.3433128E-01 -2.1926576E-01 -2.4792192E-01 -2.3198264E-01
   28.800023 -2.2856429E-01 -2.1378352E-01 -2.4183752E-01 -2.2619840E-01
   29.000023 -2.2347487E-01 -2.0893981E-01 -2.3565337E-01 -2.2032620E-01
   29.200023 -2.1900323E-01 -2.0467796E-01 -2.2937605E-01 -2.1437229E-01
   29.400024 -2.1506341E-01 -2.0091698E-01 -2.2301161E-01 -2.0834236E-01
   29.600024 -2.1154758E-01 -1.9755555E-01 -2.1656542E-01 -2.0224150E-01
   29.800025 -2.0833077E-01 -1.9447654E-01 -2.1004187E-01 -1.9607385E-01
   30.000025 -2.0527635E-01 -1.9155214E-01 -2.0344455E-01 -1.8984281E-01
   30.200025 -2.0224168E-01 -1.8864909E-01 -1.9677603E-01 -1.8355078E-01
   30.400026 -1.9908375E-01 -1.8563402E-01 -1.9003803E-01 -1.7719941E-01
   30.600026 -1.9566485E-01 -1.8237868E-01 -1.8323162E-01 -1.7078970E-01
   30.800027 -1.9185760E-01 -1.7876464E-01 -1.7635725E-01 -1.6432208E-01
   31.000027 -1.8754971E-01 -1.7468767E-01 -1.6941515E-01 -1.5779677E-01
   31.200027 -1.8264779E-01 -1.7006129E-01 -1.6240547E-01 -1.5121390E-01
   31.400028 -1.7708047E-01 -1.6481963E-01 -1.5532861E-01 -1.4457384E-01
   31.600028 -1.7080073E-01 -1.5891952E-01 -1.4818568E-01 -1.3787761E-01
   31.800029 -1.6378685E-01 -1.5234139E-01 -1.4097859E-01 -1.3112697E-01
   32.000029 -1.5604297E-01 -1.4508971E-01 -1.3371064E-01 -1.2432497E-01
   32.200029 -1.4759814E-01 -1.3719207E-01 -1.2638660E-01 -1.1747600E-01
   32.400030 -1.3850489E-01 -1.2869781E-01 -1.1901307E-01 -1.1058615E-01
   32.600030 -1.2883694E-01 -1.1967590E-01 -1.1159884E-01 -1.0366353E-01
   32.800031 -1.1868594E-01 -1.1021182E-01 -1.0415481E-01 -9.6718209E-02
   33.000031 -1.0815826E-01 -1.0040459E-01 -9.6694484E-02 -8.9762630E-02
   33.200032 -9.7370643E-02 -9.0362720E-02 -8.9233673E-02 -8.2811382E-02
   33.400032 -8.6446527E-02 -8.0200796E-02 -8.1790870E-02 -7.5881508E-02
   33.600032 -7.5511474E-02 -7.0035212E-02 -7.4386924E-02 -6.8992217E-02
   33.800033 -6.4689270E-02 -5.9980583E-02 -6.7045052E-02 -6.2164889E-02
   34.000033 -5.4098299E-02 -5.0146377E-02 -5.9790779E-02 -5.5423017E-02
   34.200034 -4.3847771E-02 -4.0633444E-02 -5.2651462E-02 -4.8791766E-02
   34.400034 -3.4035275E-02 -3.1531759E-02 -4.5656303E-02 -4.2297984E-02
   34.600034 -2.4744133E-02 -2.2918000E-02 -3.8835780E-02 -3.5969674E-02
   34.800035 -1.6041968E-02 -1.4854239E-02 -3.2221401E-02 -2.9835764E-02
   35.000035 -7.9799097E-03 -7.3872327E-03 -2.5845413E-02 -2.3925845E-02
   35.200036 -5.9209077E-04 -5.4798159E-04 -1.9740167E-02 -1.8269578E-02
   35.400036  6.1035558E-03  5.6475141E-03 -1.3937956E-02 -1.2896548E-02
   35.600036  1.2104466E-02  1.1197463E-02 -8.4703701E-03 -7.8356747E-03
   35.800037  1.7421665E-02  1.6112621E-02 -3.3679848E-03 -3.1149183E-03
   36.000037  2.2077591E-02  2.0414261E-02  1.3399781E-03  1.2390239E-03
   36.200038  2.6103810E-02  2.4132055E-02  5.6262079E-03  5.2012315E-03
   36.400038  2.9538137E-02  2.7301401E-02  9.4654755E-03  8.7487151E-03
   36.600038  3.2421991E-02  2.9960977E-02  1.2835116E-02  1.1860858E-02
   36.800039  3.4797549E-02  3.2150109E-02  1.5715248E-02  1.4519612E-02
   37.000039  3.6705090E-02  3.3906320E-02  1.8088988E-02  1.6709699E-02
   37.200040  3.8180702E-02  3.5263219E-02  1.9942763E-02  1.8418886E-02
   37.400040  3.9254188E-02  3.6248566E-02  2.1266382E-02  1.9638053E-02
   37.600040  3.9947532E-02  3.6882870E-02  2.2053235E-02  2.0361373E-02
   37.800041  4.0273784E-02  3.7178366E-02  2.2300338E-02  2.0586347E-02
   38.000041  4.0236512E-02  3.7138507E-02  2.2008385E-02  2.0313853E-02
   38.200042  3.9829796E-02  3.6757982E-02  2.1181757E-02  1.9548145E-02
   38.400042  3.9038771E-02  3.6023208E-02  1.9828497E-02  1.8296839E-02
   38.600042  3.7840661E-02  3.4913297E-02  1.7960231E-02  1.6570822E-02
   38.800043  3.6206282E-02  3.3401441E-02  1.5592060E-02  1.4384169E-02
   39.000043  3.4101968E-02  3.1456696E-02  1.2742494E-02  1.1754065E-02
   39.200044  3.1491701E-02  2.9045938E-02  9.4332050E-03  8.7005873E-03
   39.400044  2.8339599E-02  2.6136168E-02  5.6889702E-03  5.2466472E-03
   39.600044  2.4612334E-02  2.2696724E-02  1.5373701E-03  1.4177146E-03
   39.800045  2.0281646E-02  1.8701612E-02 -2.9913814E-03 -2.7583389E-03
   40.000045  1.5326810E-02  1.4131764E-02 -7.8645838E-03 -7.2513746E-03
   40.200046  9.7366320E-03  8.9768794E-03 -1.3047451E-02 -1.2029354E-02
   40.400046  3.5115075E-03  3.2373195E-03 -1.8503164E-02 -1.7058388E-02
   40.600047 -3.3353356E-03 -3.0747523E-03 -2.4193338E-02 -2.2303160E-02
   40.800047 -1.0776573E-02 -9.9342065E-03 -3.0078066E-02 -2.7726972E-02
   41.000047 -1.8770496E-02 -1.7302685E-02 -3.6116393E-02 -3.3292171E-02
   41.200048 -2.7260932E-02 -2.5128522E-02 -4.2266508E-02 -3.8960329E-02
   41.400048 -3.6177632E-02 -3.3347108E-02 -4.8485929E-02 -4.4692409E-02
   41.600049 -4.5437625E-02 -4.1882128E-02 -5.4732007E-02 -5.0449224E-02
   41.800049 -5.4946395E-02 -5.0646644E-02 -6.0961961E-02 -5.6191470E-02
   42.000049 -6.4600151E-02 -5.9545180E-02 -6.7133383E-02 -6.1880186E-02
   42.200050 -7.4288005E-02 -6.8475726E-02 -7.3204423E-02 -6.7476924E-02
   42.400050 -8.3894418E-02 -7.7331981E-02 -7.9133982E-02 -7.2943919E-02
   42.600051 -9.3302308E-02 -8.6006211E-02 -8.4882191E-02 -7.8244534E-02
   42.800051 -1.0239553E-01 -9.4391528E-02 -9.0410442E-02 -8.3343281E-02
   43.000051 -1.1106207E-01 -1.0238481E-01 -9.5681842E-02 -8.8206242E-02
   43.200052 -1.1919659E-01 -1.0988909E-01 -1.0066136E-01 -9.2801196E-02
   43.400052 -1.2670288E-01 -1.1681575E-01 -1.0531599E-01 -9.7097767E-02
   43.600053 -1.3349636E-01 -1.2308685E-01 -1.0961511E-01 -1.0106776E-01
   43.800053 -1.3950565E-01 -1.2863658E-01 -1.1353047E-01 -1.0468516E-01
   44.000053 -1.4467422E-01 -1.3341277E-01 -1.1703655E-01 -1.0792642E-01
   44.200054 -1.4896127E-01 -1.3737772E-01 -1.2011057E-01 -1.1077051E-01
   44.400054 -1.5234217E-01 -1.4050857E-01 -1.2273258E-01 -1.1319898E-01
   44.600055 -1.5480851E-01 -1.4279739E-01 -1.2488563E-01 -1.1519614E-01
   44.800055 -1.5636744E-01 -1.4425059E-01 -1.2655571E-01 -1.1674896E-01
   45.000055 -1.5704080E-01 -1.4488806E-01 -1.2773185E-01 -1.1784720E-01
   45.200056 -1.5686361E-01 -1.4474184E-01 -1.2840604E-01 -1.1848335E-01
   45.400056 -1.5588230E-01 -1.4385450E-01 -1.2857321E-01 -1.1865256E-01
   45.600057 -1.5415263E-01 -1.4227718E-01 -1.2823114E-01 -1.1835260E-01
   45.800057 -1.5173739E-01 -1.4006753E-01 -1.2738038E-01 -1.1758377E-01
   46.000057 -1.4870397E-01 -1.3728744E-01 -1.2602409E-01 -1.1634878E-01
   46.200058 -1.4512187E-01 -1.3400078E-01 -1.2416788E-01 -1.1465256E-01
   46.400058 -1.4106037E-01 -1.3027123E-01 -1.2181969E-01 -1.1250219E-01
   46.600059 -1.3658612E-01 -1.2616005E-01 -1.1898953E-01 -1.0990667E-01
   46.800059 -1.3176124E-01 -1.2172435E-01 -1.1568937E-01 -1.0687675E-01
   47.000059 -1.2664136E-01 -1.1701528E-01 -1.1193285E-01 -1.0342477E-01
   47.200060 -1.2127427E-01 -1.1207675E-01 -1.0773509E-01 -9.9564394E-02
   47.400060 -1.1569888E-01 -1.0694451E-01 -1.0311258E-01 -9.5310556E-02
   47.600061 -1.0994445E-01 -1.0164540E-01 -9.8082798E-02 -9.0679108E-02
   47.800061 -1.0403049E-01 -9.6197245E-02 -9.2664209E-02 -8.5686818E-02
   48.000062 -9.7966742E-02 -9.0608879E-02 -8.6875893E-02 -8.0351017E-02
   48.200062 -9.1753980E-02 -8.4880821E-02 -8.0737586E-02 -7.4689649E-02
   48.400062 -8.5384724E-02 -7.9005955E-02 -7.4269330E-02 -6.8720950E-02
   48.600063 -7.8844561E-02 -7.2970742E-02 -6.7491430E-02 -6.2463404E-02
   48.800063 -7.2113755E-02 -6.6756698E-02 -6.0424442E-02 -5.5935740E-02
   49.000064 -6.5168696E-02 -6.0341733E-02 -5.3088856E-02 -4.9156632E-02
   49.200064 -5.7983981E-02 -5.3702073E-02 -4.5505298E-02 -4.2144896E-02
   49.400064 -5.0534026E-02 -4.6813748E-02 -3.7694237E-02 -3.4919215E-02
   49.600065 -4.2794992E-02 -3.9654376E-02 -2.9676057E-02 -2.7498207E-02
   49.800065 -3.4746626E-02 -3.2204874E-02 -2.1471175E-02 -1.9900535E-02
   50.000066 -2.6373552E-02 -2.4450653E-02 -1.3099754E-02 -1.2144649E-02
   50.200063 -1.7667060E-02 -1.6383286E-02 -4.5821868E-03 -4.2492231E-03
   50.400060 -8.6254910E-03 -8.0008748E-03  4.0615617E-03  3.7674431E-03
   50.600058  7.4450184E-04  6.9077765E-04  1.2811415E-02  1.1886928E-02
   50.800055  1.0427506E-02  9.6777347E-03  2.1647143E-02  2.0090643E-02
   51.000053  2.0399593E-02  1.8938143E-02  3.0548628E-02  2.8360089E-02
   51.200050  3.0628184E-02  2.8442093E-02  3.9495485E-02  3.6676489E-02
   51.400048  4.1073020E-02  3.8152513E-02  4.8467381E-02  4.5021096E-02
   51.600045  5.1686626E-02  4.8025578E-02  5.7443667E-02  5.3374839E-02
   51.800042  6.2415790E-02  5.8012087E-02  6.6403674E-02  6.1718608E-02
   52.000040  7.3202747E-02  6.8058538E-02  7.5326582E-02  7.0033123E-02
   52.200037  8.3986493E-02  7.8108354E-02  8.4191304E-02  7.8298831E-02
   52.400035  9.4704737E-02  8.8103686E-02  9.2976827E-02  8.6496214E-02
   52.600032  1.0529509E-01  9.7986513E-02  1.0166190E-01  9.4605505E-02
   52.800030  1.1569704E-01  1.0770050E-01  1.1022543E-01  1.0260707E-01
   53.000027  1.2585307E-01  1.1719200E-01  1.1864624E-01  1.1048113E-01
   53.200024  1.3571032E-01  1.2641163E-01  1.2690341E-01  1.1820816E-01
   53.400022  1.4522161E-01  1.3531524E-01  1.3497627E-01  1.2576880E-01
   53.600019  1.5434622E-01  1.4386463E-01  1.4284438E-01  1.3314388E-01
   53.800017  1.6305086E-01  1.5202847E-01  1.5048789E-01  1.4031477E-01
   54.000014  1.7130976E-01  1.5978239E-01  1.5788738E-01  1.4726319E-01
   54.200011  1.7910504E-01  1.6710931E-01  1.6502421E-01  1.5397156E-01
   54.400009  1.8642638E-01  1.7399925E-01  1.7188054E-01  1.6042303E-01
