 # k       S(k)       S(k)_form^2       S(k)_Lorch          S(k)_Lorch_form^2
       0.200 -1.2131426E+00 -1.1768874E+00 -9.4214634E-01 -9.1398992E-01
       0.400 -1.1992604E+00 -1.1634126E+00 -9.2840320E-01 -9.0065179E-01
       0.600 -1.1757593E+00 -1.1406020E+00 -9.0604474E-01 -8.7895238E-01
       0.800 -1.1422242E+00 -1.1080533E+00 -8.7587115E-01 -8.4966848E-01
       1.000 -1.0983146E+00 -1.0654371E+00 -8.3896264E-01 -8.1384866E-01
       1.200 -1.0439606E+00 -1.0126866E+00 -7.9663717E-01 -7.7277222E-01
       1.400 -9.7955606E-01 -9.5018528E-01 -7.5035306E-01 -7.2785465E-01
       1.600 -9.0611843E-01 -8.7892169E-01 -7.0214166E-01 -6.8106719E-01
       1.800 -8.2538596E-01 -8.0058356E-01 -6.5312311E-01 -6.3349712E-01
       2.000 -7.3983128E-01 -7.1757087E-01 -6.0536820E-01 -5.8715358E-01
       2.200 -6.5258130E-01 -6.3291793E-01 -5.6048458E-01 -5.4359624E-01
       2.400 -5.6724514E-01 -5.5012624E-01 -5.1997700E-01 -5.0428461E-01
       2.600 -4.8766436E-01 -4.7292201E-01 -4.8514577E-01 -4.7047956E-01
       2.800 -4.1761051E-01 -4.0496268E-01 -4.5702703E-01 -4.4318542E-01
       3.000 -3.6046270E-01 -3.4952408E-01 -4.3634789E-01 -4.2310645E-01
       3.200 -3.1890166E-01 -3.0920382E-01 -4.2349776E-01 -4.1061914E-01
       3.400 -2.9465598E-01 -2.8567534E-01 -4.1851778E-01 -4.0576203E-01
       3.600 -2.8833088E-01 -2.7952211E-01 -4.2110927E-01 -4.0824399E-01
       3.800 -2.9934066E-01 -2.9017255E-01 -4.3066107E-01 -4.1747092E-01
       4.000 -3.2595433E-01 -3.1594470E-01 -4.4629412E-01 -4.3258901E-01
       4.200 -3.6545080E-01 -3.5419712E-01 -4.6692021E-01 -4.5254188E-01
       4.400 -4.1436733E-01 -4.0157019E-01 -4.9131090E-01 -4.7613747E-01
       4.600 -4.6881452E-01 -4.5429184E-01 -5.1817170E-01 -5.0212006E-01
       4.800 -5.2482360E-01 -5.0851435E-01 -5.4621608E-01 -5.2924205E-01
       5.000 -5.7868866E-01 -5.6064616E-01 -5.7423422E-01 -5.5633060E-01
       5.200 -6.2726773E-01 -6.0764355E-01 -6.0115156E-01 -5.8234443E-01
       5.400 -6.6821233E-01 -6.4723281E-01 -6.2607364E-01 -6.0641713E-01
       5.600 -7.0010281E-01 -6.7804104E-01 -6.4831384E-01 -6.2788405E-01
       5.800 -7.2248225E-01 -6.9962847E-01 -6.6740491E-01 -6.4629335E-01
       6.000 -7.3578679E-01 -7.1242050E-01 -6.8309220E-01 -6.6139932E-01
       6.200 -7.4118902E-01 -7.1755555E-01 -6.9531238E-01 -6.7314173E-01
       6.400 -7.4037629E-01 -7.1666991E-01 -7.0416008E-01 -6.8161333E-01
       6.600 -7.3529325E-01 -7.1164818E-01 -7.0984660E-01 -6.8701982E-01
       6.800 -7.2788077E-01 -7.0437036E-01 -7.1265444E-01 -6.8963584E-01
       7.000 -7.1984156E-01 -6.9648500E-01 -7.1289304E-01 -6.8976194E-01
       7.200 -7.1245759E-01 -6.8923265E-01 -7.1085856E-01 -6.8768575E-01
       7.400 -7.0647746E-01 -6.8333719E-01 -7.0680124E-01 -6.8365037E-01
       7.600 -7.0208060E-01 -6.7897155E-01 -7.0090220E-01 -6.7783194E-01
       7.800 -6.9891649E-01 -6.7579609E-01 -6.9326016E-01 -6.7032688E-01
       8.000 -6.9620741E-01 -6.7305838E-01 -6.8388813E-01 -6.6114872E-01
       8.200 -6.9289559E-01 -6.6973580E-01 -6.7271819E-01 -6.5023282E-01
       8.400 -6.8781164E-01 -6.6469860E-01 -6.5961213E-01 -6.3744670E-01
       8.600 -6.7984001E-01 -6.5686994E-01 -6.4437619E-01 -6.2260435E-01
       8.800 -6.6805893E-01 -6.4536107E-01 -6.2677632E-01 -6.0548107E-01
       9.000 -6.5183707E-01 -6.2956454E-01 -6.0655199E-01 -5.8582680E-01
       9.200 -6.3087729E-01 -6.0919622E-01 -5.8342797E-01 -5.6337756E-01
       9.400 -6.0520382E-01 -5.8428258E-01 -5.5712177E-01 -5.3786267E-01
       9.600 -5.7509821E-01 -5.5509861E-01 -5.2734738E-01 -5.0900837E-01
       9.800 -5.4099794E-01 -5.2206967E-01 -4.9381766E-01 -4.7654013E-01
      10.000 -5.0337253E-01 -4.8565175E-01 -4.5624487E-01 -4.4018318E-01
      10.200 -4.6259737E-01 -4.4620976E-01 -4.1434189E-01 -3.9966374E-01
      10.400 -4.1884685E-01 -4.0391455E-01 -3.6782855E-01 -3.5471510E-01
      10.600 -3.7201998E-01 -3.5867136E-01 -3.1644138E-01 -3.0508701E-01
      10.800 -3.2171142E-01 -3.1009230E-01 -2.5994923E-01 -2.5056075E-01
      11.000 -2.6723643E-01 -2.5752066E-01 -1.9817812E-01 -1.9097307E-01
      11.200 -2.0770186E-01 -2.0009978E-01 -1.3103798E-01 -1.2624187E-01
      11.400 -1.4212339E-01 -1.3688613E-01 -5.8557904E-02 -5.6400040E-02
      11.600 -6.9569270E-02 -6.6987978E-02  1.9079858E-02  1.8371921E-02
      11.800  1.0684073E-02  1.0284891E-02  1.0150810E-01  9.7715517E-02
      12.000  9.8998753E-02  9.5273884E-02  1.8814461E-01  1.8106559E-01
      12.200  1.9524862E-01  1.8785004E-01  2.7817459E-01  2.6763369E-01
      12.400  2.9873137E-01  2.8733019E-01  3.7054564E-01  3.5640363E-01
      12.600  4.0812516E-01  3.9243594E-01  4.6397336E-01  4.4613722E-01
      12.800  5.2150428E-01  5.0130978E-01  5.5696743E-01  5.3539968E-01
      13.000  6.3640734E-01  6.1158146E-01  6.4787186E-01  6.2259875E-01
      13.200  7.4995170E-01  7.2047875E-01  7.3491815E-01  7.0603602E-01
      13.400  8.5899216E-01  8.2498068E-01  8.1629479E-01  7.8397390E-01
      13.600  9.6029964E-01  9.2198956E-01  8.9022064E-01  8.5470627E-01
      13.800  1.0507502E+00  1.0085126E+00  9.5502208E-01  9.1663254E-01
      14.000  1.1275130E+00  1.0818425E+00  1.0092119E+00  9.6833324E-01
      14.200  1.1882124E+00  1.1397121E+00  1.0515563E+00  1.0086340E+00
      14.400  1.2310631E+00  1.1804240E+00  1.0811344E+00  1.0366626E+00
      14.600  1.2549618E+00  1.2029371E+00  1.0973801E+00  1.0518879E+00
      14.800  1.2595339E+00  1.2069103E+00  1.1001057E+00  1.0541430E+00
      15.000  1.2451344E+00  1.1927026E+00  1.0895069E+00  1.0436285E+00
      15.200  1.2128037E+00  1.1613292E+00  1.0661480E+00  1.0208979E+00
      15.400  1.1641840E+00  1.1143804E+00  1.0309280E+00  9.8682514E-01
      15.600  1.1014058E+00  1.0539121E+00  9.8503223E-01  9.4255666E-01
      15.800  1.0269534E+00  9.8231573E-01  9.2987248E-01  8.8945455E-01
      16.000  9.4351640E-01  9.0217619E-01  8.6701751E-01  8.2902910E-01
      16.200  8.5384550E-01  8.1613304E-01  7.9812398E-01  7.6287263E-01
      16.400  7.6061131E-01  7.2674569E-01  7.2486473E-01  6.9259070E-01
      16.600  6.6628451E-01  6.3637880E-01  6.4886529E-01  6.1974143E-01
      16.800  5.7304004E-01  5.4711115E-01  5.7164962E-01  5.4578364E-01
      17.000  4.8268461E-01  4.6066690E-01  4.9459292E-01  4.7203201E-01
      17.200  3.9662167E-01  3.7838274E-01  4.1889275E-01  3.9962968E-01
      17.400  3.1583961E-01  3.0119740E-01  3.4554722E-01  3.2952777E-01
      17.600  2.4093250E-01  2.2967208E-01  2.7534940E-01  2.6248044E-01
      17.800  1.7214396E-01  1.6403302E-01  2.0889260E-01  1.9905017E-01
      18.000  1.0942518E-01  1.0422742E-01  1.4658125E-01  1.3961855E-01
      18.200  5.2509232E-02  4.9994716E-02  8.8653663E-02  8.4408294E-02
      18.400  9.8383680E-04  9.3634059E-04  3.5204101E-02  3.3504570E-02
      18.600 -4.5634190E-02 -4.3413231E-02 -1.3788279E-02 -1.3117221E-02
      18.800 -8.7837947E-02 -8.3528295E-02 -5.8434710E-02 -5.5567689E-02
      19.000 -1.2608059E-01 -1.1984448E-01 -9.8910930E-02 -9.4018672E-02
      19.200 -1.6074257E-01 -1.5272773E-01 -1.3543460E-01 -1.2868165E-01
      19.400 -1.9211826E-01 -1.8246164E-01 -1.6824826E-01 -1.5979145E-01
      19.600 -2.2041611E-01 -2.0924789E-01 -1.9760342E-01 -1.8759109E-01
      19.800 -2.4577490E-01 -2.3322172E-01 -2.2375119E-01 -2.1232289E-01
      20.000 -2.6828731E-01 -2.5447449E-01 -2.4693471E-01 -2.3422123E-01
      20.200 -2.8802802E-01 -2.7308039E-01 -2.6738471E-01 -2.5350840E-01
      20.400 -3.0508190E-01 -2.8912318E-01 -2.8531850E-01 -2.7039360E-01
      20.600 -3.1956532E-01 -3.0271637E-01 -3.0093879E-01 -2.8507192E-01
      20.800 -3.3164036E-01 -3.1401658E-01 -3.1443508E-01 -2.9772561E-01
      21.000 -3.4151779E-01 -3.2322628E-01 -3.2598438E-01 -3.0852483E-01
      21.200 -3.4944999E-01 -3.3058697E-01 -3.3575226E-01 -3.1762863E-01
      21.400 -3.5571564E-01 -3.3636463E-01 -3.4389422E-01 -3.2518630E-01
      21.600 -3.6059815E-01 -3.4082926E-01 -3.5055605E-01 -3.3133769E-01
      21.800 -3.6436268E-01 -3.4423315E-01 -3.5587453E-01 -3.3621394E-01
      22.000 -3.6723479E-01 -3.4679075E-01 -3.5997761E-01 -3.3993758E-01
      22.200 -3.6938472E-01 -3.4866392E-01 -3.6298448E-01 -3.4262270E-01
      22.400 -3.7091981E-01 -3.4995489E-01 -3.6500587E-01 -3.4437522E-01
      22.600 -3.7188590E-01 -3.5070773E-01 -3.6614417E-01 -3.4529298E-01
      22.800 -3.7227774E-01 -3.5091826E-01 -3.6649385E-01 -3.4546621E-01
      23.000 -3.7205636E-01 -3.5055053E-01 -3.6614187E-01 -3.4497791E-01
      23.200 -3.7117060E-01 -3.4955720E-01 -3.6516830E-01 -3.4390442E-01
      23.400 -3.6957920E-01 -3.4790034E-01 -3.6364687E-01 -3.4231599E-01
      23.600 -3.6727004E-01 -3.4556949E-01 -3.6164561E-01 -3.4027739E-01
      23.800 -3.6427311E-01 -3.4259383E-01 -3.5922727E-01 -3.3784829E-01
      24.000 -3.6066556E-01 -3.3904680E-01 -3.5644968E-01 -3.3508362E-01
      24.200 -3.5656797E-01 -3.3504253E-01 -3.5336601E-01 -3.3203388E-01
      24.400 -3.5213240E-01 -3.3072452E-01 -3.5002473E-01 -3.2874499E-01
      24.600 -3.4752484E-01 -3.2624905E-01 -3.4646964E-01 -3.2525845E-01
      24.800 -3.4290436E-01 -3.2176563E-01 -3.4273965E-01 -3.2161108E-01
      25.000 -3.3840300E-01 -3.1739819E-01 -3.3886869E-01 -3.1783496E-01
      25.200 -3.3410969E-01 -3.1322994E-01 -3.3488570E-01 -3.1395745E-01
      25.400 -3.3006032E-01 -3.0929430E-01 -3.3081453E-01 -3.1000106E-01
      25.600 -3.2623649E-01 -3.0557376E-01 -3.2667426E-01 -3.0598380E-01
      25.800 -3.2257213E-01 -3.0200618E-01 -3.2247933E-01 -3.0191929E-01
      26.000 -3.1896771E-01 -2.9849826E-01 -3.1824009E-01 -2.9781734E-01
      26.200 -3.1530894E-01 -2.9494304E-01 -3.1396318E-01 -2.9368420E-01
      26.400 -3.1148740E-01 -2.9123924E-01 -3.0965203E-01 -2.8952317E-01
      26.600 -3.0741941E-01 -2.8730886E-01 -3.0530743E-01 -2.8533504E-01
      26.800 -3.0305996E-01 -2.8311019E-01 -3.0092774E-01 -2.8111832E-01
      27.000 -2.9840986E-01 -2.7864434E-01 -2.9650928E-01 -2.7686964E-01
      27.200 -2.9351440E-01 -2.7395396E-01 -2.9204632E-01 -2.7258372E-01
      27.400 -2.8845440E-01 -2.6911474E-01 -2.8753116E-01 -2.6825340E-01
      27.600 -2.8333093E-01 -2.6422113E-01 -2.8295405E-01 -2.6386968E-01
      27.800 -2.7824612E-01 -2.5936842E-01 -2.7830296E-01 -2.5942141E-01
      28.000 -2.7328393E-01 -2.5463478E-01 -2.7356365E-01 -2.5489540E-01
      28.200 -2.6849330E-01 -2.5006562E-01 -2.6871953E-01 -2.5027632E-01
      28.400 -2.6387719E-01 -2.4566349E-01 -2.6375194E-01 -2.4554689E-01
      28.600 -2.5938905E-01 -2.4138488E-01 -2.5864055E-01 -2.4068833E-01
      28.800 -2.5493721E-01 -2.3714433E-01 -2.5336381E-01 -2.3568075E-01
      29.000 -2.5039688E-01 -2.3282577E-01 -2.4789996E-01 -2.3050406E-01
      29.200 -2.4562727E-01 -2.2829840E-01 -2.4222771E-01 -2.2513868E-01
      29.400 -2.4049157E-01 -2.2343538E-01 -2.3632743E-01 -2.1956657E-01
      29.600 -2.3487639E-01 -2.1813176E-01 -2.3018218E-01 -2.1377221E-01
      29.800 -2.2870723E-01 -2.1231889E-01 -2.2377848E-01 -2.0774332E-01
      30.000 -2.2195833E-01 -2.0597342E-01 -2.1710726E-01 -2.0147171E-01
      30.200 -2.1465450E-01 -1.9911893E-01 -2.1016421E-01 -1.9495362E-01
      30.400 -2.0686558E-01 -1.9182071E-01 -2.0295001E-01 -1.8818992E-01
      30.600 -1.9869430E-01 -1.8417444E-01 -1.9547045E-01 -1.8118618E-01
      30.800 -1.9025929E-01 -1.7629032E-01 -1.8773577E-01 -1.7395208E-01
      31.000 -1.8167694E-01 -1.6827637E-01 -1.7976035E-01 -1.6650115E-01
      31.200 -1.7304415E-01 -1.6022233E-01 -1.7156173E-01 -1.5884976E-01
      31.400 -1.6442547E-01 -1.5218792E-01 -1.6315984E-01 -1.5101649E-01
      31.600 -1.5584643E-01 -1.4419663E-01 -1.5457631E-01 -1.4302145E-01
      31.800 -1.4729342E-01 -1.3623573E-01 -1.4583341E-01 -1.3488532E-01
      32.000 -1.3872103E-01 -1.2826309E-01 -1.3695380E-01 -1.2662909E-01
      32.200 -1.3006401E-01 -1.2021830E-01 -1.2795983E-01 -1.1827341E-01
      32.400 -1.2125290E-01 -1.1203715E-01 -1.1887343E-01 -1.0983853E-01
      32.600 -1.1222996E-01 -1.0366630E-01 -1.0971631E-01 -1.0134445E-01
      32.800 -1.0296238E-01 -9.5075529E-02 -1.0050975E-01 -9.2810763E-02
      33.000 -9.3451579E-02 -8.6266205E-02 -9.1275362E-02 -8.4257315E-02
      33.200 -8.3735708E-02 -7.7273611E-02 -8.2035063E-02 -7.5704209E-02
      33.400 -7.3886647E-02 -6.8164074E-02 -7.2811861E-02 -6.7172532E-02
      33.600 -6.4000604E-02 -5.9026275E-02 -6.3629929E-02 -5.8684411E-02
      33.800 -5.4185325E-02 -4.9959421E-02 -5.4515051E-02 -5.0263432E-02
      34.000 -4.4545736E-02 -4.1060005E-02 -4.5494988E-02 -4.1934979E-02
      34.200 -3.5170118E-02 -3.2409073E-02 -3.6599286E-02 -3.3726043E-02
      34.400 -2.6120364E-02 -2.4063274E-02 -2.7859652E-02 -2.5665586E-02
      34.600 -1.7426611E-02 -1.6049962E-02 -1.9309580E-02 -1.7784182E-02
      34.800 -9.0882667E-03 -8.3681714E-03 -1.0984343E-02 -1.0114015E-02
      35.000 -1.0806700E-03 -9.9479583E-04 -2.9209156E-03 -2.6888084E-03
      35.200  6.6341871E-03  6.1055229E-03  4.8425633E-03  4.4566698E-03
      35.400  1.4093864E-02  1.2967686E-02  1.2266755E-02  1.1286573E-02
      35.600  2.1322205E-02  1.9613939E-02  1.9311724E-02  1.7764531E-02
      35.800  2.8318014E-02  2.6043468E-02  2.5937188E-02  2.3853874E-02
      36.000  3.5048080E-02  3.2226018E-02  3.2102855E-02  2.9517941E-02
      36.200  4.1446090E-02  3.8100919E-02  3.7769129E-02  3.4720731E-02
      36.400  4.7416869E-02  4.3581016E-02  4.2897418E-02  3.9427172E-02
      36.600  5.2846213E-02  4.8561723E-02  4.7450930E-02  4.3603861E-02
      36.800  5.7613903E-02  5.2932990E-02  5.1395213E-02  4.7219545E-02
      37.000  6.1608106E-02  5.6592527E-02  5.4698758E-02  5.0245677E-02
      37.200  6.4738944E-02  5.9458254E-02  5.7333751E-02  5.2657096E-02
      37.400  6.6948521E-02  6.1477483E-02  5.9276509E-02  5.4432429E-02
      37.600  6.8216377E-02  6.2631893E-02  6.0508059E-02  5.5554611E-02
      37.800  6.8559113E-02  6.2937161E-02  6.1014435E-02  5.6011158E-02
      38.000  6.8024641E-02  6.2437653E-02  6.0786903E-02  5.5794364E-02
      38.200  6.6682028E-02  6.1197089E-02  5.9822056E-02  5.4901385E-02
      38.400  6.4608788E-02  5.9286871E-02  5.8121768E-02  5.3334196E-02
      38.600  6.1877732E-02  5.6774018E-02  5.5693031E-02  5.1099435E-02
      38.800  5.8545715E-02  5.3710846E-02  5.2547755E-02  4.8208214E-02
      39.000  5.4646155E-02  5.0128128E-02  4.8702612E-02  4.4675984E-02
      39.200  5.0186311E-02  4.6032598E-02  4.4178748E-02  4.0522256E-02
      39.400  4.5150108E-02  4.1409571E-02  3.9001816E-02  3.5770644E-02
      39.600  3.9505414E-02  3.6229608E-02  3.3201818E-02  3.0448709E-02
      39.800  3.3214910E-02  3.0458503E-02  2.6813228E-02  2.4588078E-02
      40.000  2.6248541E-02  2.4068692E-02  1.9875268E-02  1.8224697E-02
      40.200  1.8595045E-02  1.7049819E-02  1.2431870E-02  1.1398797E-02
      40.400  1.0271432E-02  9.4174247E-03  4.5321490E-03  4.1553284E-03
      40.600  1.3278367E-03  1.2173847E-03 -3.7697810E-03 -3.4562033E-03
      40.800 -8.1518421E-03 -7.4735045E-03 -1.2414512E-02 -1.1381466E-02
      41.000 -1.8054748E-02 -1.6551933E-02 -2.1337846E-02 -1.9561758E-02
      41.200 -2.8247434E-02 -2.5895747E-02 -3.0471136E-02 -2.7934318E-02
      41.400 -3.8586734E-02 -3.5373901E-02 -3.9741861E-02 -3.6432850E-02
      41.600 -4.8931868E-02 -4.4857555E-02 -4.9074933E-02 -4.4988708E-02
      41.800 -5.9154642E-02 -5.4229408E-02 -5.8393530E-02 -5.3531666E-02
      42.000 -6.9147692E-02 -6.3391245E-02 -6.7620803E-02 -6.1991468E-02
      42.200 -7.8828412E-02 -7.2267541E-02 -7.6681213E-02 -7.0299053E-02
      42.400 -8.8138771E-02 -8.0805276E-02 -8.5501873E-02 -7.8387778E-02
      42.600 -9.7041829E-02 -8.8970747E-02 -9.4014262E-02 -8.6194987E-02
      42.800 -1.0551478E-01 -9.6743190E-02 -1.0215510E-01 -9.3662800E-02
      43.000 -1.1354138E-01 -1.0410782E-01 -1.0986761E-01 -1.0073929E-01
      43.200 -1.2110414E-01 -1.1104873E-01 -1.1710209E-01 -1.0737897E-01
      43.400 -1.2817841E-01 -1.1754336E-01 -1.2381618E-01 -1.1354306E-01
      43.600 -1.3472947E-01 -1.2355994E-01 -1.2997511E-01 -1.1919973E-01
      43.800 -1.4071261E-01 -1.2905747E-01 -1.3555127E-01 -1.2432364E-01
      44.000 -1.4607668E-01 -1.3398904E-01 -1.4052389E-01 -1.2889574E-01
      44.200 -1.5076987E-01 -1.3830706E-01 -1.4487836E-01 -1.3290255E-01
      44.400 -1.5474662E-01 -1.4196965E-01 -1.4860541E-01 -1.3633550E-01
      44.600 -1.5797464E-01 -1.4494704E-01 -1.5170050E-01 -1.3919031E-01
      44.800 -1.6043993E-01 -1.4722624E-01 -1.5416302E-01 -1.4146629E-01
      45.000 -1.6214951E-01 -1.4881346E-01 -1.5599576E-01 -1.4316583E-01
      45.200 -1.6313074E-01 -1.4973358E-01 -1.5720439E-01 -1.4429394E-01
      45.400 -1.6342752E-01 -1.5002667E-01 -1.5779709E-01 -1.4485793E-01
      45.600 -1.6309405E-01 -1.4974220E-01 -1.5778444E-01 -1.4486727E-01
      45.800 -1.6218710E-01 -1.4893206E-01 -1.5717921E-01 -1.4433344E-01
      46.000 -1.6075822E-01 -1.4764331E-01 -1.5599638E-01 -1.4326995E-01
      46.200 -1.5884737E-01 -1.4591239E-01 -1.5425310E-01 -1.4169224E-01
      46.400 -1.5647895E-01 -1.4376146E-01 -1.5196866E-01 -1.3961774E-01
      46.600 -1.5366101E-01 -1.4119766E-01 -1.4916435E-01 -1.3706572E-01
      46.800 -1.5038787E-01 -1.3821546E-01 -1.4586332E-01 -1.3405713E-01
      47.000 -1.4664530E-01 -1.3480150E-01 -1.4209021E-01 -1.3061430E-01
      47.200 -1.4241772E-01 -1.3094113E-01 -1.3787079E-01 -1.2676060E-01
      47.400 -1.3769579E-01 -1.2662540E-01 -1.3323151E-01 -1.2252004E-01
      47.600 -1.3248287E-01 -1.2185705E-01 -1.2819885E-01 -1.1791663E-01
      47.800 -1.2679957E-01 -1.1665465E-01 -1.2279888E-01 -1.1297405E-01
      48.000 -1.2068478E-01 -1.1105361E-01 -1.1705654E-01 -1.0771492E-01
      48.200 -1.1419368E-01 -1.0510434E-01 -1.1099534E-01 -1.0216058E-01
      48.400 -1.0739219E-01 -9.8867190E-02 -1.0463677E-01 -9.6330502E-02
      48.600 -1.0034949E-01 -9.2405526E-02 -9.8000105E-02 -9.0242130E-02
      48.800 -9.3129435E-02 -8.5777911E-02 -9.1102347E-02 -8.3910838E-02
      49.000 -8.5782281E-02 -7.9030391E-02 -8.3958023E-02 -7.7349720E-02
      49.200 -7.8338690E-02 -7.2191022E-02 -7.6579593E-02 -7.0569972E-02
      49.400 -7.0806294E-02 -6.5266655E-02 -6.8977477E-02 -6.3580919E-02
      49.600 -6.3170207E-02 -5.8243385E-02 -6.1160528E-02 -5.6390447E-02
      49.800 -5.5397142E-02 -5.1090324E-02 -5.3136597E-02 -4.9005524E-02
      50.000 -4.7442119E-02 -4.3765762E-02 -4.4912740E-02 -4.1432388E-02
      50.200 -3.9257716E-02 -3.6225688E-02 -3.6496157E-02 -3.3677415E-02
      50.400 -3.0802637E-02 -2.8431694E-02 -2.7894001E-02 -2.5746941E-02
      50.600 -2.2050273E-02 -2.0358886E-02 -1.9114299E-02 -1.7648119E-02
      50.800 -1.2994385E-02 -1.2001152E-02 -1.0166341E-02 -9.3892707E-03
      51.000 -3.6511321E-03 -3.3730580E-03 -1.0606678E-03 -9.7988622E-04
      51.200  5.9418832E-03  5.4909979E-03  8.1903377E-03  7.5688340E-03
      51.400  1.5730651E-02  1.4541412E-02  1.7572666E-02  1.6244171E-02
      51.600  2.5651526E-02  2.3719611E-02  2.7070232E-02  2.5031468E-02
      51.800  3.5639932E-02  3.2966086E-02  3.6665186E-02  3.3914421E-02
      52.000  4.5638326E-02  4.2227762E-02  4.6337831E-02  4.2874993E-02
      52.200  5.5602509E-02  5.1463843E-02  5.6066584E-02  5.1893376E-02
      52.400  6.5505693E-02  6.0649593E-02  6.5828475E-02  6.0948447E-02
      52.600  7.5338487E-02  6.9776357E-02  7.5598965E-02  7.0017605E-02
      52.800  8.5106347E-02  7.8849215E-02  8.5352581E-02  7.9077345E-02
      53.000  9.4823484E-02  8.7881362E-02  9.5062805E-02  8.8103163E-02
      53.200  1.0450583E-01  9.6887611E-02  1.0470271E-01  9.7070136E-02
      53.400  1.1416323E-01  1.0587712E-01  1.1424513E-01  1.0595308E-01
      53.600  1.2379263E-01  1.1484712E-01  1.2366281E-01  1.1472668E-01
      53.800  1.3337416E-01  1.2377922E-01  1.3292901E-01  1.2336609E-01
      54.000  1.4286952E-01  1.3263785E-01  1.4201743E-01  1.3184679E-01
      54.200  1.5222434E-01  1.4137254E-01  1.5090264E-01  1.4014506E-01
      54.400  1.6137321E-01  1.4992240E-01  1.5956018E-01  1.4823802E-01
