 # k       S(k)       S(k)_form^2       S(k)_Lorch          S(k)_Lorch_form^2
       0.200 -1.9552845E+00 -1.9029577E+00 -1.3711293E+00 -1.3344356E+00
       0.400 -1.9438656E+00 -1.8918336E+00 -1.2626151E+00 -1.2288184E+00
       0.600 -1.8998740E+00 -1.8490019E+00 -1.0899551E+00 -1.0607699E+00
       0.800 -1.7936340E+00 -1.7455833E+00 -8.6490652E-01 -8.4173602E-01
       1.000 -1.5971524E+00 -1.5543386E+00 -6.0286012E-01 -5.8669964E-01
       1.200 -1.2935443E+00 -1.2588426E+00 -3.2179700E-01 -3.1316421E-01
       1.400 -8.8437818E-01 -8.6063171E-01 -4.1005983E-02 -3.9904930E-02
       1.600 -3.9303678E-01 -3.8247235E-01  2.2036496E-01  2.1444177E-01
       1.800  1.3689287E-01  1.3320898E-01  4.4481640E-01  4.3284607E-01
       2.000  6.4802405E-01  6.3056227E-01  6.1792820E-01  6.0127739E-01
       2.200  1.0790741E+00  1.0499548E+00  7.2956273E-01  7.0987517E-01
       2.400  1.3761508E+00  1.3389555E+00  7.7469526E-01  7.5375645E-01
       2.600  1.5029743E+00  1.4622809E+00  7.5375675E-01  7.3334858E-01
       2.800  1.4478217E+00  1.4085483E+00  6.7242685E-01  6.5418666E-01
       3.000  1.2257123E+00  1.1923971E+00  5.4088388E-01  5.2618247E-01
       3.200  8.7541169E-01  8.5156668E-01  3.7259293E-01  3.6244401E-01
       3.400  4.5196264E-01  4.3962372E-01  1.8277955E-01  1.7778953E-01
       3.600  1.6398642E-02  1.5949865E-02 -1.3216496E-02 -1.2854804E-02
       3.800 -3.7515698E-01 -3.6486394E-01 -2.0149582E-01 -1.9596745E-01
       4.000 -6.8076000E-01 -6.6203201E-01 -3.7086638E-01 -3.6066369E-01
       4.200 -8.7849437E-01 -8.5425836E-01 -5.1367376E-01 -4.9950247E-01
       4.400 -9.6794394E-01 -9.4116117E-01 -6.2611574E-01 -6.0879128E-01
       4.600 -9.6732744E-01 -9.4047894E-01 -7.0804244E-01 -6.8839049E-01
       4.800 -9.0726702E-01 -8.8200426E-01 -7.6232048E-01 -7.4109374E-01
       5.000 -8.2281433E-01 -7.9982616E-01 -7.9389924E-01 -7.7171891E-01
       5.200 -7.4560207E-01 -7.2469834E-01 -8.0875080E-01 -7.8607663E-01
       5.400 -6.9779438E-01 -6.7816008E-01 -8.1285688E-01 -7.8998499E-01
       5.600 -6.8895202E-01 -6.6949373E-01 -8.1138890E-01 -7.8847258E-01
       5.800 -7.1615757E-01 -6.9585231E-01 -8.0817771E-01 -7.8526339E-01
       6.000 -7.6697408E-01 -7.4514070E-01 -8.0550773E-01 -7.8257741E-01
       6.200 -8.2419323E-01 -8.0063377E-01 -8.0421077E-01 -7.8122251E-01
       6.400 -8.7102761E-01 -8.4602304E-01 -8.0398573E-01 -7.8090573E-01
       6.600 -8.9544451E-01 -8.6962593E-01 -8.0384201E-01 -7.8066464E-01
       6.800 -8.9268632E-01 -8.6683083E-01 -8.0255890E-01 -7.7931383E-01
       7.000 -8.6558084E-01 -8.4039387E-01 -7.9906893E-01 -7.7581734E-01
       7.200 -8.2282815E-01 -7.9877093E-01 -7.9270442E-01 -7.6952794E-01
       7.400 -7.7594738E-01 -7.5314977E-01 -7.8328533E-01 -7.6027213E-01
       7.600 -7.3582762E-01 -7.1410029E-01 -7.7106308E-01 -7.4829533E-01
       7.800 -7.0983236E-01 -6.8876495E-01 -7.5656314E-01 -7.3410879E-01
       8.000 -7.0016619E-01 -6.7927646E-01 -7.4038451E-01 -7.1829485E-01
       8.200 -7.0380367E-01 -6.8269260E-01 -7.2301159E-01 -7.0132437E-01
       8.400 -7.1384418E-01 -6.9231442E-01 -7.0468270E-01 -6.8342925E-01
       8.600 -7.2178489E-01 -6.9989366E-01 -6.8533875E-01 -6.6455291E-01
       8.800 -7.2000741E-01 -6.9804528E-01 -6.6465053E-01 -6.4437693E-01
       9.000 -7.0377959E-01 -6.8218736E-01 -6.4210550E-01 -6.2240546E-01
       9.200 -6.7226771E-01 -6.5151984E-01 -6.1712379E-01 -5.9807780E-01
       9.400 -6.2836835E-01 -6.0885811E-01 -5.8916763E-01 -5.7087453E-01
       9.600 -5.7750666E-01 -5.5946533E-01 -5.5781691E-01 -5.4039069E-01
       9.800 -5.2582442E-01 -5.0929491E-01 -5.2279678E-01 -5.0636244E-01
      10.000 -4.7830849E-01 -4.6317708E-01 -4.8395381E-01 -4.6864380E-01
      10.200 -4.3738757E-01 -4.2346134E-01 -4.4119346E-01 -4.2714605E-01
      10.400 -4.0235447E-01 -3.8945970E-01 -3.9440218E-01 -3.8176226E-01
      10.600 -3.6970711E-01 -3.5777980E-01 -3.4337439E-01 -3.3229662E-01
      10.800 -3.3424319E-01 -3.2338725E-01 -2.8776660E-01 -2.7842018E-01
      11.000 -2.9054386E-01 -2.8104270E-01 -2.2709527E-01 -2.1966896E-01
      11.200 -2.3439446E-01 -2.2667635E-01 -1.6077574E-01 -1.5548173E-01
      11.400 -1.6375288E-01 -1.5832301E-01 -8.8205062E-02 -8.5280275E-02
      11.600 -7.9025938E-02 -7.6386909E-02 -8.8694105E-03 -8.5732213E-03
      11.800  1.7361852E-02  1.6777896E-02  7.7538167E-02  7.4930215E-02
      12.000  1.2190929E-01  1.1777914E-01  1.7100189E-01  1.6520854E-01
      12.200  2.3116419E-01  2.2327508E-01  2.7109072E-01  2.6183901E-01
      12.400  3.4266341E-01  3.3088230E-01  3.7689669E-01  3.6393861E-01
      12.600  4.5539007E-01  4.3961596E-01  4.8700496E-01  4.7013576E-01
      12.800  5.6962726E-01  5.4974683E-01  5.9950758E-01  5.7858431E-01
      13.000  6.8626301E-01  6.6212904E-01  7.1205401E-01  6.8701304E-01
      13.200  8.0577858E-01  7.7722334E-01  8.2193592E-01  7.9280811E-01
      13.400  9.2725758E-01  8.9414222E-01  9.2621088E-01  8.9313289E-01
      13.600  1.0477324E+00  1.0100217E+00  1.0218488E+00  9.8506969E-01
      13.800  1.1621026E+00  1.1199456E+00  1.1058995E+00  1.0657814E+00
      14.000  1.2636956E+00  1.2174892E+00  1.1756749E+00  1.1326869E+00
      14.200  1.3453399E+00  1.2957551E+00  1.2289208E+00  1.1836268E+00
      14.400  1.4007016E+00  1.3486611E+00  1.2639759E+00  1.2170152E+00
      14.600  1.4255322E+00  1.3721406E+00  1.2798901E+00  1.2319534E+00
      14.800  1.4185192E+00  1.3649580E+00  1.2764948E+00  1.2282962E+00
      15.000  1.3815271E+00  1.3289360E+00  1.2544116E+00  1.2066595E+00
      15.200  1.3191770E+00  1.2685468E+00  1.2149985E+00  1.1683666E+00
      15.400  1.2378860E+00  1.1899835E+00  1.1602341E+00  1.1153365E+00
      15.600  1.1446195E+00  1.0999590E+00  1.0925580E+00  1.0499288E+00
      15.800  1.0456712E+00  1.0045319E+00  1.0146829E+00  9.7476284E-01
      16.000  9.4575005E-01  9.0823128E-01  9.2939895E-01  8.9252885E-01
      16.200  8.4757634E-01  8.1367058E-01  8.3939863E-01  8.0582000E-01
      16.400  7.5201427E-01  7.2167862E-01  7.4713106E-01  7.1699239E-01
      16.600  6.5865254E-01  6.3185930E-01  6.5470585E-01  6.2807316E-01
      16.800  5.6661518E-01  5.4337142E-01  5.6384673E-01  5.4071653E-01
      17.000  4.7534369E-01  4.5567923E-01  4.7588566E-01  4.5619877E-01
      17.200  3.8513647E-01  3.6906888E-01  3.9179896E-01  3.7545342E-01
      17.400  2.9729742E-01  2.8478926E-01  3.1225808E-01  2.9912048E-01
      17.600  2.1389331E-01  2.0481784E-01  2.3769241E-01  2.2760715E-01
      17.800  1.3722069E-01  1.3134900E-01  1.6834779E-01  1.6114417E-01
      18.000  6.9164087E-02  6.6179410E-02  1.0432989E-01  9.9827682E-02
      18.200  1.0661570E-02  1.0197577E-02  4.5638945E-02  4.3652735E-02
      18.400 -3.8568365E-02 -3.6875614E-02 -7.8132432E-03 -7.4703229E-03
      18.600 -7.9949812E-02 -7.6411066E-02 -5.6189436E-02 -5.3702375E-02
      18.800 -1.1565997E-01 -1.1049721E-01 -9.9720029E-02 -9.5268787E-02
      19.000 -1.4804208E-01 -1.4137790E-01 -1.3869151E-01 -1.3244824E-01
      19.200 -1.7899955E-01 -1.7087365E-01 -1.7343116E-01 -1.6555804E-01
      19.400 -2.0954745E-01 -1.9995448E-01 -2.0428952E-01 -1.9493725E-01
      19.600 -2.3964138E-01 -2.2857827E-01 -2.3161830E-01 -2.2092558E-01
      19.800 -2.6832571E-01 -2.5583422E-01 -2.5575245E-01 -2.4384629E-01
      20.000 -2.9414069E-01 -2.8033257E-01 -2.7699550E-01 -2.6399224E-01
      20.200 -3.1565944E-01 -3.0071721E-01 -2.9561247E-01 -2.8161919E-01
      20.400 -3.3199182E-01 -3.1614542E-01 -3.1183126E-01 -2.9694715E-01
      20.600 -3.4310462E-01 -3.2659168E-01 -3.2584887E-01 -3.1016641E-01
      20.800 -3.4987230E-01 -3.3289419E-01 -3.3784214E-01 -3.2144781E-01
      21.000 -3.5385011E-01 -3.3653730E-01 -3.4797771E-01 -3.3095222E-01
      21.200 -3.5684704E-01 -3.3924414E-01 -3.5641909E-01 -3.3883730E-01
      21.400 -3.6043134E-01 -3.4250617E-01 -3.6332953E-01 -3.4526022E-01
      21.600 -3.6551707E-01 -3.4719094E-01 -3.6886935E-01 -3.5037514E-01
      21.800 -3.7215244E-01 -3.5334240E-01 -3.7319050E-01 -3.5432799E-01
      22.000 -3.7956664E-01 -3.6022716E-01 -3.7642956E-01 -3.5724992E-01
      22.200 -3.8645435E-01 -3.6660600E-01 -3.7870228E-01 -3.5925208E-01
      22.400 -3.9140761E-01 -3.7114452E-01 -3.8010160E-01 -3.6042382E-01
      22.600 -3.9336295E-01 -3.7283715E-01 -3.8069966E-01 -3.6083464E-01
      22.800 -3.9193217E-01 -3.7131984E-01 -3.8055370E-01 -3.6053978E-01
      23.000 -3.8752192E-01 -3.6698191E-01 -3.7971384E-01 -3.5958769E-01
      23.200 -3.8121319E-01 -3.6085035E-01 -3.7823095E-01 -3.5802741E-01
      23.400 -3.7444280E-01 -3.5428704E-01 -3.7616217E-01 -3.5591385E-01
      23.600 -3.6858702E-01 -3.4859422E-01 -3.7357295E-01 -3.5330970E-01
      23.800 -3.6457270E-01 -3.4464699E-01 -3.7053503E-01 -3.5028345E-01
      24.000 -3.6263095E-01 -3.4266152E-01 -3.6712136E-01 -3.4690465E-01
      24.200 -3.6226219E-01 -3.4216341E-01 -3.6339954E-01 -3.4323765E-01
      24.400 -3.6241736E-01 -3.4216032E-01 -3.5942562E-01 -3.3933580E-01
      24.600 -3.6183620E-01 -3.4146236E-01 -3.5524035E-01 -3.3523790E-01
      24.800 -3.5943814E-01 -3.3905122E-01 -3.5086847E-01 -3.3096760E-01
      25.000 -3.5464843E-01 -3.3438724E-01 -3.4632157E-01 -3.2653610E-01
      25.200 -3.4756455E-01 -3.2756530E-01 -3.4160346E-01 -3.2194722E-01
      25.400 -3.3891716E-01 -3.1927656E-01 -3.3671630E-01 -3.1720324E-01
      25.600 -3.2984286E-01 -3.1059324E-01 -3.3166648E-01 -3.1231044E-01
      25.800 -3.2154015E-01 -3.0264394E-01 -3.2646814E-01 -3.0728233E-01
      26.000 -3.1491497E-01 -2.9628007E-01 -3.2114425E-01 -3.0214073E-01
      26.200 -3.1032085E-01 -2.9183204E-01 -3.1572473E-01 -2.9691397E-01
      26.400 -3.0747001E-01 -2.8902691E-01 -3.1024293E-01 -2.9163351E-01
      26.600 -3.0553820E-01 -2.8708811E-01 -3.0473134E-01 -2.8632997E-01
      26.800 -3.0342787E-01 -2.8498370E-01 -2.9921759E-01 -2.8102936E-01
      27.000 -3.0010837E-01 -2.8174637E-01 -2.9372219E-01 -2.7575093E-01
      27.200 -2.9492973E-01 -2.7676762E-01 -2.8825763E-01 -2.7050639E-01
      27.400 -2.8781665E-01 -2.6997902E-01 -2.8282923E-01 -2.6530071E-01
      27.600 -2.7928672E-01 -2.6186819E-01 -2.7743686E-01 -2.6013370E-01
      27.800 -2.7028957E-01 -2.5332678E-01 -2.7207637E-01 -2.5500145E-01
      28.000 -2.6191817E-01 -2.4537928E-01 -2.6674085E-01 -2.4989743E-01
      28.200 -2.5507910E-01 -2.3887390E-01 -2.6142052E-01 -2.4481244E-01
      28.400 -2.5022133E-01 -2.3422912E-01 -2.5610213E-01 -2.3973407E-01
      28.600 -2.4720273E-01 -2.3130969E-01 -2.5076818E-01 -2.3464591E-01
      28.800 -2.4533242E-01 -2.2946729E-01 -2.4539630E-01 -2.2952705E-01
      29.000 -2.4357437E-01 -2.2773202E-01 -2.3996023E-01 -2.2435295E-01
      29.200 -2.4085008E-01 -2.2509579E-01 -2.3443161E-01 -2.1909715E-01
      29.400 -2.3635002E-01 -2.2080340E-01 -2.2878321E-01 -2.1373432E-01
      29.600 -2.2976234E-01 -2.1456556E-01 -2.2299262E-01 -2.0824359E-01
      29.800 -2.2135270E-01 -2.0663250E-01 -2.1704500E-01 -2.0261126E-01
      30.000 -2.1187487E-01 -1.9770949E-01 -2.1093498E-01 -1.9683244E-01
      30.200 -2.0234014E-01 -1.8874093E-01 -2.0466601E-01 -1.9091048E-01
      30.400 -1.9371636E-01 -1.8062923E-01 -1.9824797E-01 -1.8485470E-01
      30.600 -1.8664548E-01 -1.7397175E-01 -1.9169316E-01 -1.7867667E-01
      30.800 -1.8126147E-01 -1.6889162E-01 -1.8501155E-01 -1.7238579E-01
      31.000 -1.7716072E-01 -1.6501115E-01 -1.7820716E-01 -1.6598583E-01
      31.200 -1.7352960E-01 -1.6157145E-01 -1.7127568E-01 -1.5947286E-01
      31.400 -1.6938942E-01 -1.5766109E-01 -1.6420495E-01 -1.5283560E-01
      31.600 -1.6388439E-01 -1.5248429E-01 -1.5697790E-01 -1.4605824E-01
      31.800 -1.5652747E-01 -1.4558930E-01 -1.4957696E-01 -1.3912450E-01
      32.000 -1.4733380E-01 -1.3699187E-01 -1.4198973E-01 -1.3202292E-01
      32.200 -1.3680446E-01 -1.2715937E-01 -1.3421340E-01 -1.2475098E-01
      32.400 -1.2576991E-01 -1.1686456E-01 -1.2625778E-01 -1.1731788E-01
      32.600 -1.1514193E-01 -1.0695468E-01 -1.1814570E-01 -1.0974488E-01
      32.800 -1.0564860E-01 -9.8105342E-02 -1.0991043E-01 -1.0206288E-01
      33.000 -9.7631772E-02 -9.0632725E-02 -1.0159166E-01 -9.4308735E-02
      33.200 -9.0963311E-02 -8.4416534E-02 -9.3229959E-02 -8.6520049E-02
      33.400 -8.5103232E-02 -7.8954553E-02 -8.4862320E-02 -7.8731046E-02
      33.600 -7.9277595E-02 -7.3528206E-02 -7.6518605E-02 -7.0969304E-02
      33.800 -7.2721455E-02 -6.7428110E-02 -6.8220743E-02 -6.3255002E-02
      34.000 -6.4913038E-02 -6.0171091E-02 -5.9984277E-02 -5.5602380E-02
      34.200 -5.5729722E-02 -5.1644370E-02 -5.1821380E-02 -4.8022535E-02
      34.400 -4.5482340E-02 -4.2136817E-02 -4.3745372E-02 -4.0527615E-02
      34.600 -3.4819530E-02 -3.2249826E-02 -3.5774397E-02 -3.3134222E-02
      34.800 -2.4534636E-02 -2.2718118E-02 -2.7934272E-02 -2.5866050E-02
      35.000 -1.5334540E-02 -1.4195627E-02 -2.0259510E-02 -1.8754813E-02
      35.200 -7.6396892E-03 -7.0705528E-03 -1.2792051E-02 -1.1839078E-02
      35.400 -1.4753069E-03 -1.3650758E-03 -5.5791157E-03 -5.1622589E-03
      35.600  3.5169164E-03  3.2533894E-03  1.3302011E-03  1.2305275E-03
      35.800  7.9517339E-03  7.3542496E-03  7.8877676E-03  7.2950897E-03
      36.000  1.2498639E-02  1.1556989E-02  1.4048386E-02  1.2989978E-02
      36.200  1.7667410E-02  1.6332900E-02  1.9770829E-02  1.8277437E-02
      36.400  2.3644815E-02  2.1854343E-02  2.5017222E-02  2.3122826E-02
      36.600  3.0231100E-02  2.7936387E-02  2.9752143E-02  2.7493785E-02
      36.800  3.6893087E-02  3.4086215E-02  3.3941327E-02  3.1359029E-02
      37.000  4.2916424E-02  3.9644039E-02  3.7550954E-02  3.4687687E-02
      37.200  4.7610513E-02  4.3972473E-02  4.0548079E-02  3.7449698E-02
      37.400  5.0503745E-02  4.6636765E-02  4.2901774E-02  3.9616863E-02
      37.600  5.1472154E-02  4.7523356E-02  4.4585230E-02  4.1164778E-02
      37.800  5.0763920E-02  4.6862235E-02  4.5577805E-02  4.2074722E-02
      38.000  4.8914804E-02  4.5148616E-02  4.5866605E-02  4.2335112E-02
      38.200  4.6581287E-02  4.2988775E-02  4.5447046E-02  4.1942010E-02
      38.400  4.4342492E-02  4.0917241E-02  4.4322120E-02  4.0898443E-02
      38.600  4.2529827E-02  3.9239708E-02  4.2500579E-02  3.9212722E-02
      38.800  4.1134378E-02  3.7947766E-02  3.9994536E-02  3.6896225E-02
      39.000  3.9817715E-02  3.6729075E-02  3.6817286E-02  3.3961388E-02
      39.200  3.8020793E-02  3.5067957E-02  3.2981848E-02  3.0420355E-02
      39.400  3.5136959E-02  3.2405026E-02  2.8501114E-02  2.6285125E-02
      39.600  3.0696429E-02  2.8307286E-02  2.3389271E-02  2.1568854E-02
      39.800  2.4507815E-02  2.2598543E-02  1.7664641E-02  1.6288484E-02
      40.000  1.6716084E-02  1.5412715E-02  1.1353190E-02  1.0467971E-02
      40.200  7.7614964E-03  7.1558644E-03  4.4915025E-03  4.1410291E-03
      40.400 -1.7449989E-03 -1.6087447E-03 -2.8708258E-03 -2.6466640E-03
      40.600 -1.1191947E-02 -1.0317542E-02 -1.0670950E-02 -9.8372498E-03
      40.800 -2.0130299E-02 -1.8556785E-02 -1.8833812E-02 -1.7361641E-02
      41.000 -2.8382215E-02 -2.6162789E-02 -2.7275360E-02 -2.5142487E-02
      41.200 -3.6063898E-02 -3.3242901E-02 -3.5906447E-02 -3.3097766E-02
      41.400 -4.3518581E-02 -4.0113705E-02 -4.4636982E-02 -4.1144602E-02
      41.600 -5.1182639E-02 -4.7177594E-02 -5.3380017E-02 -4.9203027E-02
      41.800 -5.9426108E-02 -5.4775803E-02 -6.2054094E-02 -5.7198140E-02
      42.000 -6.8417632E-02 -6.3063943E-02 -7.0584885E-02 -6.5061608E-02
      42.200 -7.8053474E-02 -7.1946586E-02 -7.8905117E-02 -7.2731597E-02
      42.400 -8.7971309E-02 -8.1089967E-02 -8.6953619E-02 -8.0151884E-02
      42.600 -9.7643795E-02 -9.0008200E-02 -9.4674442E-02 -8.7271046E-02
      42.800 -1.0652138E-01 -9.8194868E-02 -1.0201558E-01 -9.4041272E-02
      43.000 -1.1418195E-01 -1.0526094E-01 -1.0892885E-01 -1.0041827E-01
      43.200 -1.2044116E-01 -1.1103648E-01 -1.1537017E-01 -1.0636146E-01
      43.400 -1.2539151E-01 -1.1560671E-01 -1.2130031E-01 -1.1183477E-01
      43.600 -1.2935987E-01 -1.1927290E-01 -1.2668638E-01 -1.1680788E-01
      43.800 -1.3279679E-01 -1.2245041E-01 -1.3150246E-01 -1.2125693E-01
      44.000 -1.3613270E-01 -1.2553612E-01 -1.3573026E-01 -1.2516501E-01
      44.200 -1.3964398E-01 -1.2878495E-01 -1.3935859E-01 -1.2852176E-01
      44.400 -1.4336901E-01 -1.3223242E-01 -1.4238218E-01 -1.3132225E-01
      44.600 -1.4709849E-01 -1.3568557E-01 -1.4480018E-01 -1.3356558E-01
      44.800 -1.5044106E-01 -1.3878344E-01 -1.4661423E-01 -1.3525315E-01
      45.000 -1.5294360E-01 -1.4110792E-01 -1.4782717E-01 -1.3638744E-01
      45.200 -1.5422869E-01 -1.4231054E-01 -1.4844221E-01 -1.3697122E-01
      45.400 -1.5410771E-01 -1.4221683E-01 -1.4846292E-01 -1.3700759E-01
      45.600 -1.5263611E-01 -1.4087749E-01 -1.4789398E-01 -1.3650067E-01
      45.800 -1.5009515E-01 -1.3855158E-01 -1.4674240E-01 -1.3545669E-01
      46.000 -1.4690681E-01 -1.3562826E-01 -1.4501864E-01 -1.3388505E-01
      46.200 -1.4350879E-01 -1.3251132E-01 -1.4273750E-01 -1.3179914E-01
      46.400 -1.4022765E-01 -1.2950221E-01 -1.3991831E-01 -1.2921653E-01
      46.600 -1.3718820E-01 -1.2671617E-01 -1.3658422E-01 -1.2615830E-01
      46.800 -1.3428588E-01 -1.2405668E-01 -1.3276102E-01 -1.2264798E-01
      47.000 -1.3122899E-01 -1.2125420E-01 -1.2847526E-01 -1.1870978E-01
      47.200 -1.2763690E-01 -1.1795683E-01 -1.2375252E-01 -1.1436705E-01
      47.400 -1.2316349E-01 -1.1384431E-01 -1.1861606E-01 -1.0964096E-01
      47.600 -1.1760790E-01 -1.0873037E-01 -1.1308581E-01 -1.0454963E-01
      47.800 -1.1097946E-01 -1.0262297E-01 -1.0717850E-01 -9.9108220E-02
      48.000 -1.0349739E-01 -9.5724140E-02 -1.0090818E-01 -9.3329398E-02
      48.200 -9.5526877E-02 -8.8371096E-02 -9.4287582E-02 -8.7224635E-02
      48.400 -8.7471069E-02 -8.0936437E-02 -8.7329386E-02 -8.0805339E-02
      48.600 -7.9652982E-02 -7.3718937E-02 -8.0047607E-02 -7.4084163E-02
      48.800 -7.2223174E-02 -6.6857989E-02 -7.2458687E-02 -6.7076006E-02
      49.000 -6.5120539E-02 -6.0297143E-02 -6.4581654E-02 -5.9798173E-02
      49.200 -5.8098539E-02 -5.3808171E-02 -5.6438275E-02 -5.2270512E-02
      49.400 -5.0807330E-02 -4.7066932E-02 -4.8052120E-02 -4.4514558E-02
      49.600 -4.2907209E-02 -3.9758358E-02 -3.9447670E-02 -3.6552706E-02
      49.800 -3.4178427E-02 -3.1678239E-02 -3.0649303E-02 -2.8407274E-02
      50.000 -2.4593676E-02 -2.2800548E-02 -2.1679906E-02 -2.0099221E-02
      50.200 -1.4332565E-02 -1.3291092E-02 -1.2560508E-02 -1.1647801E-02
      50.400 -3.7319797E-03 -3.4617278E-03 -3.3090567E-03 -3.0694309E-03
      50.600  6.8099999E-03  6.3185818E-03  6.0591331E-03  5.6218984E-03
      50.800  1.6949272E-02  1.5730564E-02  1.5531020E-02  1.4414290E-02
      51.000  2.6495074E-02  2.4596936E-02  2.5095419E-02  2.3297554E-02
      51.200  3.5462658E-02  3.2931506E-02  3.4741542E-02  3.2261860E-02
      51.400  4.4064969E-02  4.0931718E-02  4.4458081E-02  4.1296878E-02
      51.600  5.2644470E-02  4.8915577E-02  5.4231458E-02  5.0390156E-02
      51.800  6.1566793E-02  5.7222990E-02  6.4044910E-02  5.9526265E-02
      52.000  7.1106843E-02  6.6109920E-02  7.3877391E-02  6.8685772E-02
      52.200  8.1361401E-02  7.5666990E-02  8.3702961E-02  7.7844666E-02
      52.400  9.2214346E-02  8.5786879E-02  9.3491272E-02  8.6974801E-02
      52.600  1.0336328E-01  9.6188794E-02  1.0320796E-01  9.6044254E-02
      52.800  1.1440076E-01  1.0649381E-01  1.1281639E-01  1.0501895E-01
      53.000  1.2492437E-01  1.1632721E-01  1.2227902E-01  1.1386390E-01
      53.200  1.3464468E-01  1.2541901E-01  1.3155959E-01  1.2254530E-01
      53.400  1.4345847E-01  1.3367237E-01  1.4062464E-01  1.3103185E-01
      53.600  1.5146683E-01  1.4118078E-01  1.4944449E-01  1.3929578E-01
      53.800  1.5893421E-01  1.4819011E-01  1.5799408E-01  1.4731354E-01
      54.000  1.6620030E-01  1.5501674E-01  1.6625228E-01  1.5506521E-01
      54.200  1.7357259E-01  1.6194740E-01  1.7420126E-01  1.6253397E-01
      54.400  1.8123041E-01  1.6914964E-01  1.8182504E-01  1.6970463E-01
