 # k       S(k)       S(k)_form^2       S(k)_Lorch          S(k)_Lorch_form^2
       0.200  1.6777926E-05  9.2821626E-03 -1.0969711E-05 -6.0688456E-03
       0.400  1.4524566E-05  8.0355211E-03 -1.0945831E-05 -6.0556340E-03
       0.600  1.1015313E-05  6.0940740E-03 -1.0906320E-05 -6.0337749E-03
       0.800  6.5895901E-06  3.6456023E-03 -1.0851614E-05 -6.0035100E-03
       1.000  1.6663230E-06  9.2187085E-04 -1.0782325E-05 -5.9651765E-03
       1.200 -3.3036931E-06 -1.8277239E-03 -1.0699211E-05 -5.9191952E-03
       1.400 -7.8880024E-06 -4.3639315E-03 -1.0602990E-05 -5.8659620E-03
       1.600 -1.1719085E-05 -6.4834266E-03 -1.0499107E-05 -5.8084903E-03
       1.800 -1.4531730E-05 -8.0394847E-03 -1.0379091E-05 -5.7420927E-03
       2.000 -1.6186867E-05 -8.9551672E-03 -1.0252042E-05 -5.6718047E-03
       2.200 -1.6679388E-05 -9.2276478E-03 -1.0117508E-05 -5.5973755E-03
       2.400 -1.6129595E-05 -8.9234820E-03 -9.9767750E-06 -5.5195169E-03
       2.600 -1.4760031E-05 -8.1657892E-03 -9.8311326E-06 -5.4389422E-03
       2.800 -1.2861267E-05 -7.1153236E-03 -9.6817545E-06 -5.3563007E-03
       3.000 -1.0751494E-05 -5.9481199E-03 -9.5296386E-06 -5.2721447E-03
       3.200 -8.7353864E-06 -4.8327353E-03 -9.3755689E-06 -5.1869077E-03
       3.400 -7.0675421E-06 -3.9100228E-03 -9.2200957E-06 -5.1008942E-03
       3.600 -5.9249575E-06 -3.2779032E-03 -9.0635379E-06 -5.0142807E-03
       3.800 -5.3915778E-06 -2.9828181E-03 -8.9060051E-06 -4.9271278E-03
       4.000 -5.4562023E-06 -3.0185707E-03 -8.7474381E-06 -4.8394027E-03
       4.200 -6.0231642E-06 -3.3322347E-03 -8.5876626E-06 -4.7510091E-03
       4.400 -6.9335125E-06 -3.8358727E-03 -8.4264502E-06 -4.6618205E-03
       4.600 -7.9931269E-06 -4.4220902E-03 -8.2635783E-06 -4.5717138E-03
       4.800 -9.0034503E-06 -4.9810380E-03 -8.0988826E-06 -4.4805981E-03
       5.000 -9.7904186E-06 -5.4164177E-03 -7.9322943E-06 -4.3884353E-03
       5.200 -1.0227681E-05 -5.6583272E-03 -7.7638575E-06 -4.2952500E-03
       5.400 -1.0251234E-05 -5.6713577E-03 -7.5937246E-06 -4.2011262E-03
       5.600 -9.8639856E-06 -5.4571177E-03 -7.4221328E-06 -4.1061954E-03
       5.800 -9.1302680E-06 -5.0511983E-03 -7.2493552E-06 -4.0106085E-03
       6.000 -8.1617648E-06 -4.5153868E-03 -7.0756465E-06 -3.9145065E-03
       6.200 -7.0974580E-06 -3.9265734E-03 -6.9011801E-06 -3.8179853E-03
       6.400 -6.0809100E-06 -3.3641818E-03 -6.7259899E-06 -3.7210637E-03
       6.600 -5.2383502E-06 -2.8980469E-03 -6.5499186E-06 -3.6236546E-03
       6.800 -4.6608147E-06 -2.5785332E-03 -6.3725921E-06 -3.5255511E-03
       7.000 -4.3926301E-06 -2.4301637E-03 -6.1934077E-06 -3.4264197E-03
       7.200 -4.4276314E-06 -2.4495276E-03 -6.0115441E-06 -3.3258061E-03
       7.400 -4.7131949E-06 -2.6075118E-03 -5.8259996E-06 -3.2231561E-03
       7.600 -5.1609968E-06 -2.8552522E-03 -5.6356369E-06 -3.1178405E-03
       7.800 -5.6625258E-06 -3.1327164E-03 -5.4392343E-06 -3.0091834E-03
       8.000 -6.1066988E-06 -3.3784491E-03 -5.2355434E-06 -2.8964941E-03
       8.200 -6.3968508E-06 -3.5389719E-03 -5.0233273E-06 -2.7790884E-03
       8.400 -6.4645439E-06 -3.5764222E-03 -4.8013800E-06 -2.6562991E-03
       8.600 -6.2782744E-06 -3.4733711E-03 -4.5685318E-06 -2.5274789E-03
       8.800 -5.8460682E-06 -3.2342588E-03 -4.3236212E-06 -2.3919854E-03
       9.000 -5.2118601E-06 -2.8833917E-03 -4.0654454E-06 -2.2491531E-03
       9.200 -4.4465846E-06 -2.4600132E-03 -3.7927069E-06 -2.0982642E-03
       9.400 -3.6355717E-06 -2.0113312E-03 -3.5039488E-06 -1.9385127E-03
       9.600 -2.8643658E-06 -1.5846720E-03 -3.1974984E-06 -1.7689731E-03
       9.800 -2.2052593E-06 -1.2200301E-03 -2.8714505E-06 -1.5885915E-03
      10.000 -1.7064866E-06 -9.4409081E-04 -2.5236775E-06 -1.3961907E-03
      10.200 -1.3856438E-06 -7.6658882E-04 -2.1518874E-06 -1.1905028E-03
      10.400 -1.2281431E-06 -6.7945371E-04 -1.7537552E-06 -9.7024155E-04
      10.600 -1.1906573E-06 -6.5871519E-04 -1.3270952E-06 -7.3419762E-04
      10.800 -1.2088335E-06 -6.6877089E-04 -8.7008127E-07 -4.8136079E-04
      11.000 -1.2078959E-06 -6.6825219E-04 -3.8152709E-07 -2.1107474E-04
      11.200 -1.1144044E-06 -6.1652926E-04  1.3884947E-07  7.6816607E-05
      11.400 -8.6735007E-07 -4.7984979E-04  6.9013273E-07  3.8180667E-04
      11.600 -4.2696541E-07 -2.3621288E-04  1.2699709E-06  7.0259436E-04
      11.800  2.1996575E-07  1.2169310E-04  1.8743992E-06  1.0369862E-03
      12.000  1.0588687E-06  5.8580489E-04  2.4977182E-06  1.3818291E-03
      12.200  2.0502068E-06  1.1342494E-03  3.1325001E-06  1.7330136E-03
      12.400  3.1357315E-06  1.7348014E-03  3.7697085E-06  2.0855407E-03
      12.600  4.2469632E-06  2.3495754E-03  4.3989064E-06  2.4336359E-03
      12.800  5.3146034E-06  2.9402330E-03  5.0086044E-06  2.7709432E-03
      13.000  6.2773603E-06  3.4728654E-03  5.5866912E-06  3.0907619E-03
      13.200  7.0889208E-06  3.9218503E-03  6.1209211E-06  3.3863175E-03
      13.400  7.7222268E-06  4.2722184E-03  6.5994710E-06  3.6510687E-03
      13.600  8.1705342E-06  4.5202384E-03  7.0114732E-06  3.8790034E-03
      13.800  8.4454074E-06  4.6723083E-03  7.3475234E-06  4.0649187E-03
      14.000  8.5722129E-06  4.7424617E-03  7.6001403E-06  4.2046757E-03
      14.200  8.5839876E-06  4.7489759E-03  7.7641047E-06  4.2953867E-03
      14.400  8.5148326E-06  4.7107169E-03  7.8367033E-06  4.3355509E-03
      14.600  8.3939133E-06  4.6438199E-03  7.8178264E-06  4.3251075E-03
      14.800  8.2410190E-06  4.5592332E-03  7.7099375E-06  4.2654194E-03
      15.000  8.0642899E-06  4.4614601E-03  7.5179093E-06  4.1591825E-03
      15.200  7.8603539E-06  4.3486353E-03  7.2487496E-06  4.0102735E-03
      15.400  7.6166703E-06  4.2138206E-03  6.9112235E-06  3.8235417E-03
      15.600  7.3155529E-06  4.0472315E-03  6.5154167E-06  3.6045669E-03
      15.800  6.9390765E-06  3.8389509E-03  6.0722683E-06  3.3594009E-03
      16.000  6.4739402E-06  3.5816205E-03  5.5930770E-06  3.0942948E-03
      16.200  5.9154699E-06  3.2726543E-03  5.0890622E-06  2.8154554E-03
      16.400  5.2700240E-06  2.9155701E-03  4.5709407E-06  2.5288116E-03
      16.600  4.5554619E-06  2.5202481E-03  4.0485930E-06  2.2398297E-03
      16.800  3.7996081E-06  2.1020822E-03  3.5308128E-06  1.9533748E-03
      17.000  3.0369515E-06  1.6801527E-03  3.0251151E-06  1.6736043E-03
      17.200  2.3042314E-06  1.2747851E-03  2.5376693E-06  1.4039315E-03
      17.400  1.6355381E-06  9.0483949E-04  2.0732723E-06  1.1470101E-03
      17.600  1.0578121E-06  5.8522033E-04  1.6354150E-06  9.0477141E-04
      17.800  5.8741127E-07  3.2497740E-04  1.2264003E-06  6.7848950E-04
      18.000  2.2824740E-07  1.2627481E-04  8.4747712E-07  4.6885535E-04
      18.200 -2.8186463E-08 -1.5593782E-05  4.9902760E-07  2.7608032E-04
      18.400 -2.0101084E-07 -1.1120655E-04  1.8072908E-07  9.9985940E-05
      18.600 -3.1664463E-07 -1.7517939E-04 -1.0826013E-07 -5.9893462E-05
      18.800 -4.0457071E-07 -2.2382332E-04 -3.6915602E-07 -2.0423062E-04
      19.000 -4.9283172E-07 -2.7265254E-04 -6.0340898E-07 -3.3382792E-04
      19.200 -6.0396406E-07 -3.3413501E-04 -8.1259164E-07 -4.4955542E-04
      19.400 -7.5197538E-07 -4.1602029E-04 -9.9832351E-07 -5.5230909E-04
      19.600 -9.4077441E-07 -5.2047081E-04 -1.1622037E-06 -6.4297357E-04
      19.800 -1.1642495E-06 -6.4410539E-04 -1.3057799E-06 -7.2240518E-04
      20.000 -1.4078973E-06 -7.7890028E-04 -1.4305250E-06 -7.9141878E-04
      20.200 -1.6516844E-06 -9.1377221E-04 -1.5378284E-06 -8.5078291E-04
      20.400 -1.8736565E-06 -1.0365753E-03 -1.6290008E-06 -9.0122281E-04
      20.600 -2.0536711E-06 -1.1361660E-03 -1.7052769E-06 -9.4342156E-04
      20.800 -2.1766950E-06 -1.2042273E-03 -1.7678275E-06 -9.7802683E-04
      21.000 -2.2351415E-06 -1.2365620E-03 -1.8177665E-06 -1.0056549E-03
      21.200 -2.2299355E-06 -1.2336819E-03 -1.8561587E-06 -1.0268949E-03
      21.400 -2.1701884E-06 -1.2006276E-03 -1.8840279E-06 -1.0423132E-03
      21.600 -2.0715893E-06 -1.1460790E-03 -1.9023596E-06 -1.0524549E-03
      21.800 -1.9538182E-06 -1.0809237E-03 -1.9121050E-06 -1.0578464E-03
      22.000 -1.8374317E-06 -1.0165344E-03 -1.9141822E-06 -1.0589956E-03
      22.200 -1.7407318E-06 -9.6303648E-04 -1.9094760E-06 -1.0563920E-03
      22.400 -1.6771061E-06 -9.2783644E-04 -1.8988372E-06 -1.0505062E-03
      22.600 -1.6532513E-06 -9.1463910E-04 -1.8830807E-06 -1.0417891E-03
      22.800 -1.6685114E-06 -9.2308151E-04 -1.8629826E-06 -1.0306701E-03
      23.000 -1.7154006E-06 -9.4902236E-04 -1.8392760E-06 -1.0175548E-03
      23.200 -1.7811741E-06 -9.8541064E-04 -1.8126473E-06 -1.0028228E-03
      23.400 -1.8501615E-06 -1.0235770E-03 -1.7837299E-06 -9.8682461E-04
      23.600 -1.9064592E-06 -1.0547230E-03 -1.7530997E-06 -9.6987891E-04
      23.800 -1.9365485E-06 -1.0713695E-03 -1.7212694E-06 -9.5226922E-04
      24.000 -1.9314204E-06 -1.0685324E-03 -1.6886838E-06 -9.3424163E-04
      24.200 -1.8878977E-06 -1.0444541E-03 -1.6557172E-06 -9.1600330E-04
      24.400 -1.8089709E-06 -1.0007889E-03 -1.6226712E-06 -8.9772108E-04
      24.600 -1.7031373E-06 -9.4223784E-04 -1.5897768E-06 -8.7952269E-04
      24.800 -1.5828800E-06 -8.7570714E-04 -1.5571963E-06 -8.6149793E-04
      25.000 -1.4625676E-06 -8.0914589E-04 -1.5250295E-06 -8.4370212E-04
      25.200 -1.3561257E-06 -7.5025833E-04 -1.4933228E-06 -8.2616079E-04
      25.400 -1.2748534E-06 -7.0529553E-04 -1.4620767E-06 -8.0887432E-04
      25.600 -1.2257367E-06 -6.7812239E-04 -1.4312586E-06 -7.9182461E-04
      25.800 -1.2104949E-06 -6.6969004E-04 -1.4008120E-06 -7.7498044E-04
      26.000 -1.2254954E-06 -6.7798889E-04 -1.3706684E-06 -7.5830391E-04
      26.200 -1.2625134E-06 -6.9846858E-04 -1.3407555E-06 -7.4175498E-04
      26.400 -1.3101886E-06 -7.2484426E-04 -1.3110047E-06 -7.2529578E-04
      26.600 -1.3559232E-06 -7.5014629E-04 -1.2813573E-06 -7.0889376E-04
      26.800 -1.3879083E-06 -7.6784164E-04 -1.2517658E-06 -6.9252261E-04
      27.000 -1.3969512E-06 -7.7284453E-04 -1.2221955E-06 -6.7616325E-04
      27.200 -1.3778263E-06 -7.6226390E-04 -1.1926226E-06 -6.5980245E-04
      27.400 -1.3299498E-06 -7.3577690E-04 -1.1630313E-06 -6.4343143E-04
      27.600 -1.2573016E-06 -6.9558522E-04 -1.1334102E-06 -6.2704400E-04
      27.800 -1.1676258E-06 -6.4597330E-04 -1.1037478E-06 -6.1063367E-04
      28.000 -1.0710722E-06 -5.9255632E-04 -1.0740293E-06 -5.9419227E-04
      28.200 -9.7850060E-07 -5.4134233E-04 -1.0442327E-06 -5.7770771E-04
      28.400 -8.9973806E-07 -4.9776801E-04 -1.0143279E-06 -5.6116328E-04
      28.600 -8.4206060E-07 -4.6585872E-04 -9.8427635E-07 -5.4453768E-04
      28.800 -8.0912750E-07 -4.4763893E-04 -9.5403145E-07 -5.2780510E-04
      29.000 -8.0052806E-07 -4.4288140E-04 -9.2354177E-07 -5.1093709E-04
      29.200 -8.1198246E-07 -4.4921840E-04 -8.9275348E-07 -4.9390388E-04
      29.400 -8.3614792E-07 -4.6258761E-04 -8.6161469E-07 -4.7667677E-04
      29.600 -8.6387777E-07 -4.7792878E-04 -8.3007999E-07 -4.5923062E-04
      29.800 -8.8572266E-07 -4.9001417E-04 -7.9811325E-07 -4.4154544E-04
      30.000 -8.9342571E-07 -4.9427578E-04 -7.6569212E-07 -4.2360889E-04
      30.200 -8.8117996E-07 -4.8750099E-04 -7.3280935E-07 -4.0541694E-04
      30.400 -8.4645547E-07 -4.6829013E-04 -6.9947464E-07 -3.8697496E-04
      30.600 -7.9028431E-07 -4.3721419E-04 -6.6571538E-07 -3.6829810E-04
      30.800 -7.1697392E-07 -3.9665620E-04 -6.3157478E-07 -3.4941027E-04
      31.000 -6.3331987E-07 -3.5037572E-04 -5.9711157E-07 -3.3034396E-04
      31.200 -5.4745204E-07 -3.0287049E-04 -5.6239656E-07 -3.1113835E-04
      31.400 -4.6751613E-07 -2.5864703E-04 -5.2751051E-07 -2.9183811E-04
      31.600 -4.0040105E-07 -2.2151651E-04 -4.9254193E-07 -2.7249221E-04
      31.800 -3.5070687E-07 -1.9402387E-04 -4.5758330E-07 -2.5315182E-04
      32.000 -3.2011600E-07 -1.7709988E-04 -4.2273022E-07 -2.3386982E-04
      32.200 -3.0724318E-07 -1.6997817E-04 -3.8807853E-07 -2.1469924E-04
      32.400 -3.0797801E-07 -1.7038470E-04 -3.5372372E-07 -1.9569290E-04
      32.600 -3.1624436E-07 -1.7495795E-04 -3.1976086E-07 -1.7690341E-04
      32.800 -3.2504429E-07 -1.7982639E-04 -2.8628334E-07 -1.5838242E-04
      33.000 -3.2761089E-07 -1.8124633E-04 -2.5338452E-07 -1.4018159E-04
      33.200 -3.1848517E-07 -1.7619765E-04 -2.2115683E-07 -1.2235205E-04
      33.400 -2.9434914E-07 -1.6284471E-04 -1.8969352E-07 -1.0494539E-04
      33.600 -2.5449186E-07 -1.4079421E-04 -1.5908785E-07 -8.8013220E-05
      33.800 -2.0084788E-07 -1.1111639E-04 -1.2943351E-07 -7.1607353E-05
      34.000 -1.3761767E-07 -7.6135132E-05 -1.0082460E-07 -5.5779856E-05
      34.200 -7.0540123E-08 -3.9025376E-05 -7.3353734E-08 -4.0581969E-05
      34.400 -5.9505052E-09 -3.2920371E-06 -4.7111897E-08 -2.6064025E-05
      34.600  5.0228627E-08  2.7788314E-05 -2.2185853E-08 -1.2274025E-05
      34.800  9.3394732E-08  5.1669382E-05  1.3431788E-09  7.4309566E-07
      35.000  1.2093501E-07  6.6905672E-05  2.3400985E-08  1.2946281E-05
      35.200  1.3256211E-07  7.3338206E-05  4.3922769E-08  2.4299682E-05
      35.400  1.3027021E-07  7.2070247E-05  6.2853535E-08  3.4772875E-05
      35.600  1.1793526E-07  6.5246103E-05  8.0149613E-08  4.4341698E-05
      35.800  1.0063180E-07  5.5673194E-05  9.5778551E-08  5.2988198E-05
      36.000  8.3785649E-08  4.6353286E-05  1.0971857E-07  6.0700325E-05
      36.200  7.2299821E-08  3.9998906E-05  1.2195820E-07  6.7471739E-05
      36.400  6.9794606E-08  3.8612929E-05  1.3249447E-07  7.3300787E-05
      36.600  7.8075935E-08  4.3194463E-05  1.4133174E-07  7.8189886E-05
      36.800  9.6910069E-08  5.3614195E-05  1.4847988E-07  8.2144500E-05
      37.000  1.2412828E-07  6.8672302E-05  1.5395272E-07  8.5172275E-05
      37.200  1.5603601E-07  8.6324826E-05  1.5776707E-07  8.7282514E-05
      37.400  1.8804896E-07  1.0403556E-04  1.5994182E-07  8.8485663E-05
      37.600  2.1545159E-07  1.1919570E-04  1.6049793E-07  8.8793326E-05
      37.800  2.3415064E-07  1.2954070E-04  1.5945883E-07  8.8218458E-05
      38.000  2.4130671E-07  1.3349970E-04  1.5685143E-07  8.6775948E-05
      38.200  2.3574823E-07  1.3042455E-04  1.5270752E-07  8.4483388E-05
      38.400  2.1810825E-07  1.2066546E-04  1.4706559E-07  8.1362065E-05
      38.600  1.9067230E-07  1.0548689E-04  1.3997244E-07  7.7437873E-05
      38.800  1.5697072E-07  8.6841945E-05  1.3148483E-07  7.2742217E-05
      39.000  1.2118908E-07  6.7046230E-05  1.2167091E-07  6.7312796E-05
      39.200  8.7493408E-08  4.8404554E-05  1.1061061E-07  6.1193838E-05
      39.400  5.9384077E-08  3.2853444E-05  9.8396183E-08  5.4436368E-05
      39.600  3.9174901E-08  2.1672988E-05  8.5131190E-08  4.7097688E-05
      39.800  2.7680217E-08  1.5313709E-05  7.0929485E-08  3.9240786E-05
      40.000  2.4150450E-08  1.3360912E-05  5.5913653E-08  3.0933478E-05
      40.200  2.6458772E-08  1.4637961E-05  4.0212335E-08  2.2246934E-05
      40.400  3.1502017E-08  1.7428068E-05  2.3958428E-08  1.3254679E-05
      40.600  3.5744767E-08  1.9775313E-05  7.2860391E-09  4.0309033E-06
      40.800  3.5815678E-08  1.9814543E-05 -9.6711437E-09 -5.3504304E-06
      41.000  2.9059957E-08  1.6077031E-05 -2.6782394E-08 -1.4817000E-05
      41.200  1.3960842E-08  7.7236483E-06 -4.3921262E-08 -2.4298849E-05
      41.400 -9.6321936E-09 -5.3288818E-06 -6.0966423E-08 -3.3728855E-05
      41.600 -4.0500596E-08 -2.2406411E-05 -7.7802949E-08 -4.3043438E-05
      41.800 -7.6270761E-08 -4.2195775E-05 -9.4321924E-08 -5.2182339E-05
      42.000 -1.1380789E-07 -6.2962689E-05 -1.1042107E-07 -6.1088973E-05
      42.200 -1.4971887E-07 -8.2829958E-05 -1.2600435E-07 -6.9710215E-05
      42.400 -1.8088236E-07 -1.0007074E-04 -1.4098166E-07 -7.7996213E-05
      42.600 -2.0492306E-07 -1.1337093E-04 -1.5526932E-07 -8.5900669E-05
      42.800 -2.2055264E-07 -1.2201779E-04 -1.6878964E-07 -9.3380601E-05
      43.000 -2.2773134E-07 -1.2598931E-04 -1.8147181E-07 -1.0039685E-04
      43.200 -2.2762650E-07 -1.2593131E-04 -1.9325234E-07 -1.0691426E-04
      43.400 -2.2238250E-07 -1.2303014E-04 -2.0407561E-07 -1.1290209E-04
      43.600 -2.1474319E-07 -1.1880379E-04 -2.1389520E-07 -1.1833465E-04
      43.800 -2.0759146E-07 -1.1484719E-04 -2.2267427E-07 -1.2319155E-04
      44.000 -2.0348092E-07 -1.1257309E-04 -2.3038666E-07 -1.2745833E-04
      44.200 -2.0423511E-07 -1.1299033E-04 -2.3701712E-07 -1.3112654E-04
      44.400 -2.1067533E-07 -1.1655330E-04 -2.4256141E-07 -1.3419385E-04
      44.600 -2.2251723E-07 -1.2310467E-04 -2.4702623E-07 -1.3666395E-04
      44.800 -2.3844731E-07 -1.3191778E-04 -2.5042831E-07 -1.3854610E-04
      45.000 -2.5636316E-07 -1.4182948E-04 -2.5279358E-07 -1.3985466E-04
      45.200 -2.7373346E-07 -1.5143936E-04 -2.5415572E-07 -1.4060824E-04
      45.400 -2.8801761E-07 -1.5934188E-04 -2.5455461E-07 -1.4082892E-04
      45.600 -2.9707737E-07 -1.6435407E-04 -2.5403471E-07 -1.4054129E-04
      45.800 -2.9951328E-07 -1.6570170E-04 -2.5264341E-07 -1.3977158E-04
      46.000 -2.9487608E-07 -1.6313623E-04 -2.5042954E-07 -1.3854678E-04
      46.200 -2.8372117E-07 -1.5696493E-04 -2.4744194E-07 -1.3689393E-04
      46.400 -2.6750255E-07 -1.4799220E-04 -2.4372854E-07 -1.3483954E-04
      46.600 -2.4832588E-07 -1.3738296E-04 -2.3933542E-07 -1.3240911E-04
      46.800 -2.2860508E-07 -1.2647269E-04 -2.3430643E-07 -1.2962689E-04
      47.000 -2.1067735E-07 -1.1655441E-04 -2.2868282E-07 -1.2651570E-04
      47.200 -1.9644065E-07 -1.0867815E-04 -2.2250320E-07 -1.2309691E-04
      47.400 -1.8706980E-07 -1.0349386E-04 -2.1580372E-07 -1.1939051E-04
      47.600 -1.8285364E-07 -1.0116133E-04 -2.0861810E-07 -1.1541516E-04
      47.800 -1.8317744E-07 -1.0134046E-04 -2.0097802E-07 -1.1118839E-04
      48.000 -1.8664836E-07 -1.0326070E-04 -1.9291315E-07 -1.0672661E-04
      48.200 -1.9134133E-07 -1.0585702E-04 -1.8445161E-07 -1.0204538E-04
      48.400 -1.9512286E-07 -1.0794910E-04 -1.7561990E-07 -9.7159354E-05
      48.600 -1.9599955E-07 -1.0843412E-04 -1.6644316E-07 -9.2082445E-05
      48.800 -1.9243541E-07 -1.0646231E-04 -1.5694544E-07 -8.6827958E-05
      49.000 -1.8358830E-07 -1.0156776E-04 -1.4714952E-07 -8.1408497E-05
      49.200 -1.6943035E-07 -9.3735068E-05 -1.3707744E-07 -7.5836254E-05
      49.400 -1.5073539E-07 -8.3392329E-05 -1.2675031E-07 -7.0122908E-05
      49.600 -1.2893943E-07 -7.1334007E-05 -1.1618865E-07 -6.4279812E-05
      49.800 -1.0589967E-07 -5.8587574E-05 -1.0541276E-07 -5.8318194E-05
      50.000 -8.3591246E-08 -4.6245735E-05 -9.4442545E-08 -5.2249071E-05
      50.200 -6.3794360E-08 -3.5293374E-05 -8.3298355E-08 -4.6083697E-05
      50.400 -4.7817368E-08 -2.6454317E-05 -7.2000272E-08 -3.9833184E-05
      50.600 -3.6304508E-08 -2.0084982E-05 -6.0568944E-08 -3.3508955E-05
      50.800 -2.9152305E-08 -1.6128121E-05 -4.9025732E-08 -2.7122828E-05
      51.000 -2.5546843E-08 -1.4133448E-05 -3.7392402E-08 -2.0686845E-05
      51.200 -2.4113824E-08 -1.3340650E-05 -2.5691662E-08 -1.4213567E-05
      51.400 -2.3153830E-08 -1.2809546E-05 -1.3946745E-08 -7.7158495E-06
      51.600 -2.0924103E-08 -1.1575979E-05 -2.1819107E-09 -1.2071128E-06
      51.800 -1.5920607E-08 -8.8078620E-06  9.5779291E-09  5.2988608E-06
      52.000 -7.1156638E-09 -3.9366455E-06  2.1307008E-08  1.1787816E-05
      52.200  5.8853061E-09  3.2559666E-06  3.2978509E-08  1.8244918E-05
      52.400  2.2791721E-08  1.2609214E-05  4.4564976E-08  2.4654975E-05
      52.600  4.2684940E-08  2.3614870E-05  5.6037889E-08  3.1002210E-05
      52.800  6.4174875E-08  3.5503888E-05  6.7368230E-08  3.7270569E-05
      53.000  8.5626491E-08  4.7371707E-05  7.8526218E-08  4.3443577E-05
      53.200  1.0542138E-07  5.8322961E-05  8.9481994E-08  4.9504712E-05
      53.400  1.2220960E-07  6.7610820E-05  1.0020584E-07  5.5437538E-05
      53.600  1.3511328E-07  7.4749610E-05  1.1066854E-07  6.1225885E-05
      53.800  1.4385125E-07  7.9583775E-05  1.2084229E-07  6.6854375E-05
      54.000  1.4876515E-07  8.2302320E-05  1.3070093E-07  7.2308534E-05
      54.200  1.5074694E-07  8.3398720E-05  1.4022086E-07  7.7575310E-05
      54.400  1.5108042E-07  8.3583217E-05  1.4938145E-07  8.2643282E-05
