 # k       S(k)       S(k)_form^2       S(k)_Lorch          S(k)_Lorch_form^2
       0.200 -3.8666454E+00 -3.7631674E+00 -5.1208983E-01 -4.9838544E-01
       0.400 -3.5904979E+00 -3.4943900E+00 -4.5687738E-01 -4.4464802E-01
       0.600 -3.1546084E+00 -3.0701388E+00 -3.6955185E-01 -3.5965652E-01
       0.800 -2.5930374E+00 -2.5235710E+00 -2.5674236E-01 -2.4986434E-01
       1.000 -1.9488018E+00 -1.8965615E+00 -1.2694256E-01 -1.2353970E-01
       1.200 -1.2698273E+00 -1.2357618E+00  1.0186878E-02  9.9135969E-03
       1.400 -6.0454518E-01 -5.8831252E-01  1.4459749E-01  1.4071489E-01
       1.600  2.4001178E-03  2.3356050E-03  2.6664288E-01  2.5947578E-01
       1.800  5.1389286E-01  5.0006364E-01  3.6780911E-01  3.5791111E-01
       2.000  9.0317111E-01  8.7883410E-01  4.4132304E-01  4.2943107E-01
       2.200  1.1554856E+00  1.1243043E+00  4.8258987E-01  4.6956697E-01
       2.400  1.2684815E+00  1.2341964E+00  4.8942915E-01  4.7620064E-01
       2.600  1.2513397E+00  1.2174594E+00  4.6209895E-01  4.4958750E-01
       2.800  1.1228494E+00  1.0923911E+00  4.0311808E-01  3.9218314E-01
       3.000  9.0869333E-01  8.8399474E-01  3.1691494E-01  3.0830108E-01
       3.200  6.3829634E-01  6.2091003E-01  2.0934612E-01  2.0364382E-01
       3.400  3.4161244E-01  3.3228616E-01  8.7137055E-02  8.4758147E-02
       3.600  4.6204091E-02  4.4939635E-02 -4.2699121E-02 -4.1530585E-02
       3.800 -2.2509500E-01 -2.1891915E-01 -1.7341075E-01 -1.6865295E-01
       4.000 -4.5573473E-01 -4.4319728E-01 -2.9897873E-01 -2.9075370E-01
       4.200 -6.3613181E-01 -6.1858213E-01 -4.1447470E-01 -4.0304012E-01
       4.400 -7.6350327E-01 -7.4237732E-01 -5.1628593E-01 -5.0200043E-01
       4.600 -8.4097132E-01 -8.1762987E-01 -6.0220121E-01 -5.8548691E-01
       4.800 -8.7613553E-01 -8.5173962E-01 -6.7136626E-01 -6.5267213E-01
       5.000 -8.7935188E-01 -8.5478414E-01 -7.2412896E-01 -7.0389791E-01
       5.200 -8.6196690E-01 -8.3780076E-01 -7.6180333E-01 -7.4044538E-01
       5.400 -8.3473097E-01 -8.1124361E-01 -7.8638561E-01 -7.6425856E-01
       5.600 -8.0656542E-01 -7.8378533E-01 -8.0025584E-01 -7.7765396E-01
       5.800 -7.8378682E-01 -7.6156406E-01 -8.0589742E-01 -7.8304776E-01
       6.000 -7.6982274E-01 -7.4790826E-01 -8.0565699E-01 -7.8272242E-01
       6.200 -7.6537770E-01 -7.4349947E-01 -8.0156358E-01 -7.7865099E-01
       6.400 -7.6895454E-01 -7.4688018E-01 -7.9521434E-01 -7.7238614E-01
       6.600 -7.7759909E-01 -7.5517839E-01 -7.8772665E-01 -7.6501394E-01
       6.800 -7.8772230E-01 -7.6490695E-01 -7.7974976E-01 -7.5716532E-01
       7.000 -7.9586396E-01 -7.7270563E-01 -7.7152271E-01 -7.4907267E-01
       7.200 -7.9929021E-01 -7.7592118E-01 -7.6296320E-01 -7.4065627E-01
       7.400 -7.9635685E-01 -7.7295961E-01 -7.5377115E-01 -7.3162509E-01
       7.600 -7.8661838E-01 -7.6339132E-01 -7.4353137E-01 -7.2157656E-01
       7.800 -7.7070377E-01 -7.4782973E-01 -7.3180301E-01 -7.1008353E-01
       8.000 -7.5001706E-01 -7.2764001E-01 -7.1818808E-01 -6.9676066E-01
       8.200 -7.2633991E-01 -7.0455286E-01 -7.0237355E-01 -6.8130538E-01
       8.400 -7.0142002E-01 -6.8026497E-01 -6.8414725E-01 -6.6351316E-01
       8.600 -6.7662227E-01 -6.5610080E-01 -6.6339130E-01 -6.4327111E-01
       8.800 -6.5269536E-01 -6.3278642E-01 -6.4005714E-01 -6.2053370E-01
       9.000 -6.2968214E-01 -6.1036325E-01 -6.1412922E-01 -5.9528750E-01
       9.200 -6.0697311E-01 -5.8824040E-01 -5.8558582E-01 -5.6751317E-01
       9.400 -5.8347312E-01 -5.6535683E-01 -5.5436115E-01 -5.3714875E-01
       9.600 -5.5783652E-01 -5.4040969E-01 -5.2031477E-01 -5.0406012E-01
       9.800 -5.2871804E-01 -5.1209756E-01 -4.8321386E-01 -4.6802383E-01
      10.000 -4.9498590E-01 -4.7932689E-01 -4.4272742E-01 -4.2872162E-01
      10.200 -4.5585900E-01 -4.4134465E-01 -3.9843430E-01 -3.8574833E-01
      10.400 -4.1094923E-01 -3.9777901E-01 -3.4984650E-01 -3.3863452E-01
      10.600 -3.6020726E-01 -3.4858644E-01 -2.9644260E-01 -2.8687892E-01
      10.800 -3.0379311E-01 -2.9392616E-01 -2.3771043E-01 -2.2998979E-01
      11.000 -2.4191092E-01 -2.3400012E-01 -1.7319951E-01 -1.6753566E-01
      11.200 -1.7464412E-01 -1.6889346E-01 -1.0257318E-01 -9.9195665E-02
      11.400 -1.0184144E-01 -9.8464484E-02 -2.5665831E-02 -2.4814779E-02
      11.600 -2.3078832E-02 -2.2308127E-02  5.7465691E-02  5.5546655E-02
      11.800  6.2283510E-02  6.0188640E-02  1.4649776E-01  1.4157039E-01
      12.000  1.5494739E-01  1.4969795E-01  2.4080209E-01  2.3264399E-01
      12.200  2.5545429E-01  2.4673622E-01  3.3942543E-01  3.2784162E-01
      12.400  3.6392839E-01  3.5141618E-01  4.4108697E-01  4.2592197E-01
      12.600  4.7982497E-01  4.6320447E-01  5.4419094E-01  5.2534088E-01
      12.800  6.0174069E-01  5.8073948E-01  6.4686544E-01  6.2428934E-01
      13.000  7.2731872E-01  7.0174094E-01  7.4702066E-01  7.2075001E-01
      13.200  8.5327411E-01  8.2303573E-01  8.4242463E-01  8.1257073E-01
      13.400  9.7555592E-01  9.4071567E-01  9.3080021E-01  8.9755833E-01
      13.600  1.0896223E+00  1.0504038E+00  1.0099283E+00  9.7357826E-01
      13.800  1.1908038E+00  1.1476056E+00  1.0777561E+00  1.0386589E+00
      14.000  1.2747160E+00  1.2281066E+00  1.1325054E+00  1.0910959E+00
      14.200  1.3376572E+00  1.2883555E+00  1.1727651E+00  1.1295407E+00
      14.400  1.3769544E+00  1.3257961E+00  1.1975692E+00  1.1530757E+00
      14.600  1.3912036E+00  1.3390978E+00  1.2064480E+00  1.1612619E+00
      14.800  1.3803822E+00  1.3282610E+00  1.1994507E+00  1.1541612E+00
      15.000  1.3458198E+00  1.2945880E+00  1.1771378E+00  1.1323273E+00
      15.200  1.2900366E+00  1.2405247E+00  1.1405437E+00  1.0967695E+00
      15.400  1.2164712E+00  1.1693974E+00  1.0911109E+00  1.0488882E+00
      15.600  1.1291392E+00  1.0850828E+00  1.0306036E+00  9.9039176E-01
      15.800  1.0322667E+00  9.9165488E-01  9.6100873E-01  9.2320033E-01
      16.000  9.2993669E-01  8.9304526E-01  8.8442625E-01  8.4934025E-01
      16.200  8.2580011E-01  7.9276547E-01  8.0296696E-01  7.7084572E-01
      16.400  7.2286465E-01  6.9370487E-01  7.1865420E-01  6.8966426E-01
      16.600  6.2338746E-01  5.9802876E-01  6.3334475E-01  6.0758100E-01
      16.800  5.2886654E-01  5.0717130E-01  5.4866994E-01  5.2616233E-01
      17.000  4.4011204E-01  4.2190507E-01  4.6599436E-01  4.4671667E-01
      17.200  3.5738618E-01  3.4247631E-01  3.8640297E-01  3.7028254E-01
      17.400  2.8056866E-01  2.6876433E-01  3.1070188E-01  2.9762975E-01
      17.600  2.0933000E-01  2.0044815E-01  2.3943989E-01  2.2928049E-01
      17.800  1.4328209E-01  1.3715103E-01  1.7294176E-01  1.6554156E-01
      18.000  8.2085343E-02  7.8543068E-02  1.1134494E-01  1.0654001E-01
      18.200  2.5511940E-02  2.4401658E-02  5.4643950E-02  5.2265841E-02
      18.400 -2.6544364E-02 -2.5379342E-02  2.7276759E-03  2.6079592E-03
      18.600 -7.4093393E-02 -7.0813865E-02 -4.4583261E-02 -4.2609913E-02
      18.800 -1.1710344E-01 -1.1187625E-01 -8.7510102E-02 -8.3603879E-02
      19.000 -1.5556250E-01 -1.4855978E-01 -1.2629421E-01 -1.2060902E-01
      19.200 -1.8953334E-01 -1.8092925E-01 -1.6118285E-01 -1.5386576E-01
      19.400 -2.1919174E-01 -2.0915726E-01 -1.9242280E-01 -1.8361378E-01
      19.600 -2.4483656E-01 -2.3353361E-01 -2.2025571E-01 -2.1008754E-01
      19.800 -2.6687593E-01 -2.5445193E-01 -2.4491869E-01 -2.3351688E-01
      20.000 -2.8579001E-01 -2.7237391E-01 -2.6664443E-01 -2.5412709E-01
      20.200 -3.0208081E-01 -2.8778134E-01 -2.8566149E-01 -2.7213926E-01
      20.400 -3.1621994E-01 -3.0112635E-01 -3.0219471E-01 -2.8777056E-01
      20.600 -3.2860261E-01 -3.1278762E-01 -3.1646298E-01 -3.0123225E-01
      20.800 -3.3951825E-01 -3.2304259E-01 -3.2867743E-01 -3.1272783E-01
      21.000 -3.4914035E-01 -3.3205798E-01 -3.3903806E-01 -3.2244997E-01
      21.200 -3.5753686E-01 -3.3989993E-01 -3.4773069E-01 -3.3057750E-01
      21.400 -3.6469785E-01 -3.4656049E-01 -3.5492486E-01 -3.3727354E-01
      21.600 -3.7057294E-01 -3.5199331E-01 -3.6077212E-01 -3.4268389E-01
      21.800 -3.7511183E-01 -3.5615221E-01 -3.6540624E-01 -3.4693718E-01
      22.000 -3.7829913E-01 -3.5902423E-01 -3.6894419E-01 -3.5014594E-01
      22.200 -3.8017773E-01 -3.6065175E-01 -3.7148830E-01 -3.5240861E-01
      22.400 -3.8085730E-01 -3.6114040E-01 -3.7312910E-01 -3.5381228E-01
      22.600 -3.8050704E-01 -3.6065206E-01 -3.7394811E-01 -3.5443538E-01
      22.800 -3.7933574E-01 -3.5938588E-01 -3.7402048E-01 -3.5435016E-01
      23.000 -3.7756375E-01 -3.5755156E-01 -3.7341685E-01 -3.5362446E-01
      23.200 -3.7539303E-01 -3.5534108E-01 -3.7220444E-01 -3.5232281E-01
      23.400 -3.7298133E-01 -3.5290424E-01 -3.7044724E-01 -3.5050656E-01
      23.600 -3.7042538E-01 -3.5033286E-01 -3.6820561E-01 -3.4823350E-01
      23.800 -3.6775576E-01 -3.4765608E-01 -3.6553533E-01 -3.4555701E-01
      24.000 -3.6494393E-01 -3.4484713E-01 -3.6248670E-01 -3.4252521E-01
      24.200 -3.6191945E-01 -3.4183968E-01 -3.5910385E-01 -3.3918029E-01
      24.400 -3.5859326E-01 -3.3854996E-01 -3.5542442E-01 -3.3555825E-01
      24.600 -3.5488269E-01 -3.3490038E-01 -3.5148007E-01 -3.3168936E-01
      24.800 -3.5073293E-01 -3.3083975E-01 -3.4729728E-01 -3.2759897E-01
      25.000 -3.4613147E-01 -3.2635686E-01 -3.4289884E-01 -3.2330891E-01
      25.200 -3.4111320E-01 -3.2148517E-01 -3.3830554E-01 -3.1883906E-01
      25.400 -3.3575551E-01 -3.1629813E-01 -3.3353757E-01 -3.1420873E-01
      25.600 -3.3016570E-01 -3.1089724E-01 -3.2861602E-01 -3.0943800E-01
      25.800 -3.2446291E-01 -3.0539494E-01 -3.2356335E-01 -3.0454825E-01
      26.000 -3.1875912E-01 -2.9989674E-01 -3.1840375E-01 -2.9956241E-01
      26.200 -3.1314236E-01 -2.9448546E-01 -3.1316236E-01 -2.9450426E-01
      26.400 -3.0766570E-01 -2.8921086E-01 -3.0786425E-01 -2.8939751E-01
      26.600 -3.0234347E-01 -2.8408629E-01 -3.0253314E-01 -2.8426450E-01
      26.800 -2.9715479E-01 -2.7909194E-01 -2.9718955E-01 -2.7912459E-01
      27.000 -2.9205356E-01 -2.7418439E-01 -2.9184971E-01 -2.7399301E-01
      27.200 -2.8698183E-01 -2.6930916E-01 -2.8652427E-01 -2.6887977E-01
      27.400 -2.8188405E-01 -2.6441410E-01 -2.8121782E-01 -2.6378917E-01
      27.600 -2.7671906E-01 -2.5946067E-01 -2.7592902E-01 -2.5871990E-01
      27.800 -2.7146734E-01 -2.5443064E-01 -2.7065087E-01 -2.5366541E-01
      28.000 -2.6613271E-01 -2.4932769E-01 -2.6537195E-01 -2.4861497E-01
      28.200 -2.6073799E-01 -2.4417327E-01 -2.6007739E-01 -2.4355465E-01
      28.400 -2.5531647E-01 -2.3899862E-01 -2.5475031E-01 -2.3846864E-01
      28.600 -2.4990102E-01 -2.3383450E-01 -2.4937306E-01 -2.3334048E-01
      28.800 -2.4451307E-01 -2.2870093E-01 -2.4392809E-01 -2.2815378E-01
      29.000 -2.3915464E-01 -2.2359975E-01 -2.3839885E-01 -2.2289312E-01
      29.200 -2.3380424E-01 -2.1851082E-01 -2.3277002E-01 -2.1754425E-01
      29.400 -2.2841820E-01 -2.1339332E-01 -2.2702776E-01 -2.1209434E-01
      29.600 -2.2293677E-01 -2.0819144E-01 -2.2115977E-01 -2.0653197E-01
      29.800 -2.1729345E-01 -2.0284319E-01 -2.1515499E-01 -2.0084694E-01
      30.000 -2.1142630E-01 -1.9729092E-01 -2.0900380E-01 -1.9503038E-01
      30.200 -2.0528803E-01 -1.9149069E-01 -2.0269782E-01 -1.8907457E-01
      30.400 -1.9885359E-01 -1.8541941E-01 -1.9623019E-01 -1.8297324E-01
      30.600 -1.9212357E-01 -1.7907786E-01 -1.8959595E-01 -1.7672187E-01
      30.800 -1.8512250E-01 -1.7248916E-01 -1.8279221E-01 -1.7031790E-01
      31.000 -1.7789332E-01 -1.6569351E-01 -1.7581882E-01 -1.6376128E-01
      31.200 -1.7048830E-01 -1.5873974E-01 -1.6867845E-01 -1.5705460E-01
      31.400 -1.6295921E-01 -1.5167611E-01 -1.6137685E-01 -1.5020331E-01
      31.600 -1.5534828E-01 -1.4454197E-01 -1.5392301E-01 -1.4321585E-01
      31.800 -1.4768157E-01 -1.3736155E-01 -1.4632863E-01 -1.3610316E-01
      32.000 -1.3996670E-01 -1.3014190E-01 -1.3860802E-01 -1.2887858E-01
      32.200 -1.3219433E-01 -1.2287427E-01 -1.3077730E-01 -1.2155714E-01
      32.400 -1.2434367E-01 -1.1553931E-01 -1.2285396E-01 -1.1415507E-01
      32.600 -1.1639056E-01 -1.0811453E-01 -1.1485636E-01 -1.0668943E-01
      32.800 -1.0831581E-01 -1.0058211E-01 -1.0680310E-01 -9.9177407E-02
      33.000 -1.0011316E-01 -9.2936228E-02 -9.8713024E-02 -9.1636464E-02
      33.200 -9.1793851E-02 -8.5187299E-02 -9.0604931E-02 -8.4083948E-02
      33.400 -8.3388303E-02 -7.7363527E-02 -8.2498041E-02 -7.6537586E-02
      33.600 -7.4943360E-02 -6.9508299E-02 -7.4412064E-02 -6.9015534E-02
      33.800 -6.6516738E-02 -6.1675030E-02 -6.6367770E-02 -6.1536906E-02
      34.000 -5.8169546E-02 -5.3920216E-02 -5.8387566E-02 -5.4122310E-02
      34.200 -4.9958076E-02 -4.6295823E-02 -5.0495615E-02 -4.6793957E-02
      34.400 -4.1927601E-02 -3.8843552E-02 -4.2718419E-02 -3.9576201E-02
      34.600 -3.4108276E-02 -3.1591063E-02 -3.5084619E-02 -3.2495351E-02
      34.800 -2.6514978E-02 -2.4551838E-02 -2.7625010E-02 -2.5579685E-02
      35.000 -1.9150639E-02 -1.7728300E-02 -2.0372351E-02 -1.8859273E-02
      35.200 -1.2012046E-02 -1.1117181E-02 -1.3360669E-02 -1.2365335E-02
      35.400 -5.0976902E-03 -4.7168041E-03 -6.6250372E-03 -6.1300318E-03
      35.600  1.5850212E-03  1.4662536E-03 -2.0078274E-04 -1.8573784E-04
      35.800  8.0138980E-03  7.4117428E-03  5.8768898E-03  5.4353069E-03
      36.000  1.4149066E-02  1.3083072E-02  1.1573222E-02  1.0701293E-02
      36.200  1.9933964E-02  1.8428249E-02  1.6854404E-02  1.5581304E-02
      36.400  2.5299369E-02  2.3383609E-02  2.1687535E-02  2.0045276E-02
      36.600  3.0170557E-02  2.7880440E-02  2.6040916E-02  2.4064262E-02
      36.800  3.4475473E-02  3.1852536E-02  2.9884014E-02  2.7610401E-02
      37.000  3.8152653E-02  3.5243507E-02  3.3187490E-02  3.0656938E-02
      37.200  4.1157475E-02  3.8012528E-02  3.5923458E-02  3.3178456E-02
      37.400  4.3465056E-02  4.0137015E-02  3.8065592E-02  3.5150979E-02
      37.600  4.5069812E-02  4.1612184E-02  3.9589612E-02  3.6552409E-02
      37.800  4.5981401E-02  4.2447298E-02  4.0473749E-02  3.7362961E-02
      38.000  4.6218177E-02  4.2659615E-02  4.0699408E-02  3.7565763E-02
      38.200  4.5799535E-02  4.2267314E-02  4.0251952E-02  3.7147580E-02
      38.400  4.4738740E-02  4.1282882E-02  3.9121502E-02  3.6099549E-02
      38.600  4.3037858E-02  3.9708437E-02  3.7303741E-02  3.4417913E-02
      38.800  4.0685947E-02  3.7534074E-02  3.4800638E-02  3.2104690E-02
      39.000  3.7661090E-02  3.4739738E-02  3.1621115E-02  2.9168281E-02
      39.200  3.3935826E-02  3.1300243E-02  2.7781386E-02  2.5623781E-02
      39.400  2.9485385E-02  2.7192867E-02  2.3305300E-02  2.1493290E-02
      39.600  2.4296753E-02  2.2405705E-02  1.8224206E-02  1.6805792E-02
      39.800  1.8377210E-02  1.6945540E-02  1.2576740E-02  1.1596954E-02
      40.000  1.1760580E-02  1.0843596E-02  6.4084498E-03  5.9087768E-03
      40.200  4.5095187E-03  4.1576395E-03 -2.2909741E-04 -2.1122086E-04
      40.400 -3.2859711E-03 -3.0293937E-03 -7.2789190E-03 -6.7105615E-03
      40.600 -1.1514661E-02 -1.0615043E-02 -1.4679858E-02 -1.3532950E-02
      40.800 -2.0052792E-02 -1.8485337E-02 -2.2367359E-02 -2.0618982E-02
      41.000 -2.8775022E-02 -2.6524879E-02 -3.0274803E-02 -2.7907380E-02
      41.200 -3.7564835E-02 -3.4626431E-02 -3.8334473E-02 -3.5335867E-02
      41.400 -4.6322999E-02 -4.2698705E-02 -4.6478434E-02 -4.2841980E-02
      41.600 -5.4973141E-02 -5.0671489E-02 -5.4639727E-02 -5.0364165E-02
      41.800 -6.3462533E-02 -5.8496364E-02 -6.2752839E-02 -5.7842206E-02
      42.000 -7.1759370E-02 -6.6144190E-02 -7.0754648E-02 -6.5218087E-02
      42.200 -7.9846193E-02 -7.3599043E-02 -7.8584815E-02 -7.2436355E-02
      42.400 -8.7711249E-02 -8.0850250E-02 -8.6186061E-02 -7.9444366E-02
      42.600 -9.5339886E-02 -8.7884453E-02 -9.3504719E-02 -8.6192794E-02
      42.800 -1.0270671E-01 -9.4678383E-02 -1.0049063E-01 -9.2635522E-02
      43.000 -1.0977115E-01 -1.0119475E-01 -1.0709752E-01 -9.8730013E-02
      43.200 -1.1647628E-01 -1.0738120E-01 -1.1328303E-01 -1.0443730E-01
      43.400 -1.2275159E-01 -1.1317280E-01 -1.1900873E-01 -1.0972201E-01
      43.600 -1.2851935E-01 -1.1849792E-01 -1.2424046E-01 -1.1455269E-01
      43.800 -1.3370255E-01 -1.2328560E-01 -1.2894826E-01 -1.1890173E-01
      44.000 -1.3823398E-01 -1.2747384E-01 -1.3310675E-01 -1.2274571E-01
      44.200 -1.4206382E-01 -1.3101662E-01 -1.3669522E-01 -1.2606549E-01
      44.400 -1.4516483E-01 -1.3388874E-01 -1.3969775E-01 -1.2884633E-01
      44.600 -1.4753431E-01 -1.3608758E-01 -1.4210345E-01 -1.3107808E-01
      44.800 -1.4919209E-01 -1.3763125E-01 -1.4390633E-01 -1.3275509E-01
      45.000 -1.5017550E-01 -1.3855404E-01 -1.4510534E-01 -1.3387623E-01
      45.200 -1.5053196E-01 -1.3889947E-01 -1.4570403E-01 -1.3444463E-01
      45.400 -1.5031068E-01 -1.3871278E-01 -1.4571024E-01 -1.3446730E-01
      45.600 -1.4955512E-01 -1.3803385E-01 -1.4513555E-01 -1.3395474E-01
      45.800 -1.4829736E-01 -1.3689206E-01 -1.4399467E-01 -1.3292028E-01
      46.000 -1.4655531E-01 -1.3530374E-01 -1.4230473E-01 -1.3137950E-01
      46.200 -1.4433327E-01 -1.3327262E-01 -1.4008452E-01 -1.2934946E-01
      46.400 -1.4162532E-01 -1.3079297E-01 -1.3735382E-01 -1.2684818E-01
      46.600 -1.3842072E-01 -1.2785461E-01 -1.3413263E-01 -1.2389385E-01
      46.800 -1.3471032E-01 -1.2444879E-01 -1.3044080E-01 -1.2050449E-01
      47.000 -1.3049228E-01 -1.2057349E-01 -1.2629739E-01 -1.1669746E-01
      47.200 -1.2577617E-01 -1.1623723E-01 -1.2172057E-01 -1.1248920E-01
      47.400 -1.2058466E-01 -1.1146061E-01 -1.1672749E-01 -1.0789529E-01
      47.600 -1.1495212E-01 -1.0627507E-01 -1.1133423E-01 -1.0293027E-01
      47.800 -1.0892108E-01 -1.0071958E-01 -1.0555610E-01 -9.7607978E-02
      48.000 -1.0253651E-01 -9.4835431E-02 -9.9407719E-02 -9.1941630E-02
      48.200 -9.5840035E-02 -8.8660796E-02 -9.2903539E-02 -8.5944269E-02
      48.400 -8.8864289E-02 -8.2225575E-02 -8.6057960E-02 -7.9628896E-02
      48.600 -8.1629383E-02 -7.5548098E-02 -7.8885737E-02 -7.3008851E-02
      48.800 -7.4141921E-02 -6.8634199E-02 -7.1402389E-02 -6.6098176E-02
      49.000 -6.6396421E-02 -6.1478523E-02 -6.3624173E-02 -5.8911612E-02
      49.200 -5.8379774E-02 -5.4068638E-02 -5.5568567E-02 -5.1465029E-02
      49.400 -5.0076826E-02 -4.6390207E-02 -4.7254109E-02 -4.3775296E-02
      49.600 -4.1476926E-02 -3.8433040E-02 -3.8700556E-02 -3.5860420E-02
      49.800 -3.2579834E-02 -3.0196585E-02 -2.9929010E-02 -2.7739671E-02
      50.000 -2.3399442E-02 -2.1693386E-02 -2.0961544E-02 -1.9433235E-02
      50.200 -1.3965770E-02 -1.2950950E-02 -1.1821575E-02 -1.0962563E-02
      50.400 -4.3229123E-03 -4.0098680E-03 -2.5329740E-03 -2.3495483E-03
      50.600  5.4742882E-03  5.0792567E-03  6.8796018E-03  6.3831611E-03
      50.800  1.5365939E-02  1.4261079E-02  1.6390939E-02  1.5212377E-02
      51.000  2.5293934E-02  2.3481847E-02  2.5975864E-02  2.4114923E-02
      51.200  3.5207634E-02  3.2694684E-02  3.5609146E-02  3.3067538E-02
      51.400  4.5068838E-02  4.1864207E-02  4.5266154E-02  4.2047492E-02
      51.600  5.4853661E-02  5.0968287E-02  5.4922727E-02  5.1032461E-02
      51.800  6.4552506E-02  5.9998048E-02  6.4555721E-02  6.0001036E-02
      52.000  7.4167058E-02  6.8955084E-02  7.4143008E-02  6.8932724E-02
      52.200  8.3705415E-02  7.7846949E-02  8.3663388E-02  7.7807863E-02
      52.400  9.3176763E-02  8.6682214E-02  9.3096879E-02  8.6607898E-02
      52.600  1.0258551E-01  9.5465008E-02  1.0242419E-01  9.5314890E-02
      52.800  1.1192734E-01  1.0419135E-01  1.1162686E-01  1.0391163E-01
      53.000  1.2118649E-01  1.1284656E-01  1.2068652E-01  1.1238101E-01
      53.200  1.3033595E-01  1.2140551E-01  1.2958490E-01  1.2070591E-01
      53.400  1.3933946E-01  1.2983434E-01  1.3830321E-01  1.2886878E-01
      53.600  1.4815504E-01  1.3809389E-01  1.4682171E-01  1.3685111E-01
      53.800  1.5673991E-01  1.4614414E-01  1.5511970E-01  1.4463346E-01
      54.000  1.6505450E-01  1.5394803E-01  1.6317500E-01  1.5219501E-01
      54.200  1.7306608E-01  1.6147482E-01  1.7096429E-01  1.5951380E-01
      54.400  1.8075025E-01  1.6870149E-01  1.7846308E-01  1.6656677E-01
